unixTime,lslTime,ECG
1643374720961,11070.2197683,-146
1643374720961,11070.2197712,-118
1643374720961,11070.219774,-92
1643374720961,11070.2197799,-68
1643374720961,11070.2197828,-49
1643374720961,11070.2197857,-37
1643374720961,11070.2197887,-40
1643374720961,11070.2197916,-56
1643374720961,11070.2197945,-92
1643374720961,11070.2197973,-165
1643374720984,11070.2198002,-258
1643374720984,11070.219803,-333
1643374720984,11070.9139494,-388
1643374720984,11070.9139619,-433
1643374720984,11070.9139672,-476
1643374720984,11070.9139723,-494
1643374720984,11070.9139754,-492
1643374720984,11070.9139785,-497
1643374720984,11070.9139835,-504
1643374720984,11070.9139865,-499
1643374721007,11070.9139896,-483
1643374721007,11070.9139927,-466
1643374721007,11070.9139978,-452
1643374721007,11070.9140007,-445
1643374721007,11070.9140037,-454
1643374721007,11070.9140078,-449
1643374721007,11070.9140108,-431
1643374721007,11070.9140147,-426
1643374721007,11070.9140176,-419
1643374721007,11070.9140206,-402
1643374721033,11070.9140235,-395
1643374721033,11070.9140265,-393
1643374721033,11070.9140293,-383
1643374721033,11070.9140323,-374
1643374721033,11070.9140352,-369
1643374721033,11070.9140381,-369
1643374721033,11070.914041,-371
1643374721033,11070.9140453,-374
1643374721033,11070.9140483,-367
1643374721033,11070.9140535,-355
1643374721057,11070.9140566,-348
1643374721057,11070.9140616,-345
1643374721057,11070.9140648,-341
1643374721057,11070.9140696,-336
1643374721057,11070.9140724,-331
1643374721057,11070.9140754,-333
1643374721057,11070.9140785,-333
1643374721057,11070.9140824,-326
1643374721057,11070.9140854,-322
1643374721057,11070.9140884,-322
1643374721083,11070.9140914,-319
1643374721083,11070.9140953,-312
1643374721083,11070.9140984,-305
1643374721083,11070.9141013,-303
1643374721083,11070.9141044,-298
1643374721083,11070.9141098,-293
1643374721083,11070.9141129,-298
1643374721083,11070.9141178,-293
1643374721083,11070.9141207,-279
1643374721083,11070.9141236,-281
1643374721116,11070.9141267,-291
1643374721116,11070.9141297,-298
1643374721116,11070.9141326,-296
1643374721116,11070.9141355,-281
1643374721116,11070.9141385,-262
1643374721116,11070.9141415,-253
1643374721116,11070.9141456,-260
1643374721116,11070.9141486,-255
1643374721116,11070.9141537,-241
1643374721116,11070.9141565,-253
1643374721135,11070.9141595,-274
1643374721135,11070.9141626,-267
1643374721135,11070.9141655,-255
1643374721135,11070.9141684,-255
1643374721408,11070.9141714,-255
1643374721408,11070.9141743,-262
1643374721408,11070.914177,-269
1643374721408,11070.9141799,-260
1643374721408,11070.9141826,-248
1643374721408,11070.9141853,-251
1643374721408,11070.9141882,-248
1643374721408,11070.9141909,-236
1643374721408,11070.9141938,-239
1643374721408,11070.9141965,-277
1643374721442,11070.9141993,-367
1643374721442,11071.369609,-341
1643374721442,11071.3696223,104
1643374721442,11071.3696262,888
1643374721442,11071.3696337,1238
1643374721442,11071.369637,516
1643374721442,11071.369641,-556
1643374721442,11071.3696439,-788
1643374721442,11071.3696467,-416
1643374721442,11071.3696496,-284
1643374721461,11071.3696523,-324
1643374721461,11071.3696551,-288
1643374721461,11071.3696579,-269
1643374721461,11071.3696606,-281
1643374721461,11071.3696634,-265
1643374721461,11071.3696663,-248
1643374721461,11071.3696691,-255
1643374721461,11071.3696722,-255
1643374721461,11071.3696753,-251
1643374721461,11071.369678,-246
1643374721483,11071.3696807,-232
1643374721483,11071.3696834,-215
1643374721483,11071.3696862,-203
1643374721483,11071.3696889,-196
1643374721483,11071.3696917,-203
1643374721483,11071.3696946,-213
1643374721483,11071.3696973,-191
1643374721483,11071.3697,-161
1643374721483,11071.3697028,-137
1643374721483,11071.3697055,-101
1643374721508,11071.3697082,-66
1643374721508,11071.369711,-42
1643374721508,11071.3697138,-11
1643374721508,11071.3697166,35
1643374721508,11071.3697194,66
1643374721508,11071.3697225,68
1643374721508,11071.3697253,66
1643374721508,11071.3697281,54
1643374721508,11071.3697308,21
1643374721508,11071.3697336,-44
1643374721532,11071.3697364,-125
1643374721532,11071.3697391,-198
1643374721532,11071.3697419,-260
1643374721532,11071.3697447,-310
1643374721532,11071.3697474,-345
1643374721532,11071.3697502,-369
1643374721532,11071.3697531,-378
1643374721532,11071.3697558,-381
1643374721532,11071.369759,-378
1643374721532,11071.3697618,-374
1643374721557,11071.3697645,-371
1643374721557,11071.3697673,-362
1643374721557,11071.36977,-350
1643374721557,11071.3697728,-336
1643374721557,11071.3697755,-319
1643374721557,11071.3697783,-312
1643374721557,11071.3697812,-310
1643374721557,11071.3697848,-307
1643374721557,11071.3697876,-305
1643374721557,11071.3697904,-298
1643374721582,11071.3697932,-293
1643374721582,11071.3697961,-284
1643374721582,11071.3697989,-272
1643374721582,11071.3698018,-272
1643374721942,11071.3698045,-269
1643374721942,11071.3698072,-267
1643374721942,11071.3698101,-269
1643374721942,11071.3698132,-265
1643374721942,11071.369816,-260
1643374721942,11071.3698188,-260
1643374721942,11071.3698216,-258
1643374721942,11071.3698244,-253
1643374721942,11071.3698273,-246
1643374721942,11071.3698302,-248
1643374721963,11071.8694358,-248
1643374721963,11071.8694486,-246
1643374721963,11071.8694524,-246
1643374721963,11071.8694574,-241
1643374721963,11071.8694605,-239
1643374721963,11071.8694651,-243
1643374721963,11071.8694681,-236
1643374721963,11071.8694727,-232
1643374721963,11071.8694757,-234
1643374721963,11071.8694807,-234
1643374721990,11071.8694837,-232
1643374721990,11071.8694888,-227
1643374721990,11071.8694917,-224
1643374721990,11071.8694964,-222
1643374721990,11071.8694994,-224
1643374721990,11071.8695042,-246
1643374721990,11071.8695072,-267
1643374721990,11071.8695119,-262
1643374721990,11071.8695149,-258
1643374721990,11071.8695197,-265
1643374722008,11071.8695227,-260
1643374722008,11071.8695464,-236
1643374722008,11071.8695544,-217
1643374722008,11071.8695576,-220
1643374722008,11071.8695623,-210
1643374722008,11071.8695653,-191
1643374722008,11071.8695683,-189
1643374722008,11071.869573,-210
1643374722008,11071.8695766,-224
1643374722008,11071.8695812,-215
1643374722035,11071.8695842,-213
1643374722035,11071.8695871,-220
1643374722035,11071.8695901,-217
1643374722035,11071.8695942,-210
1643374722035,11071.8695971,-210
1643374722035,11071.8696001,-213
1643374722035,11071.8696029,-213
1643374722035,11071.8696058,-208
1643374722035,11071.8696087,-203
1643374722035,11071.8696115,-198
1643374722060,11071.8696143,-203
1643374722060,11071.8696172,-251
1643374722060,11071.8696201,-326
1643374722060,11071.869623,-234
1643374722060,11071.869626,260
1643374722060,11071.8696288,973
1643374722060,11071.8696328,1105
1643374722060,11071.8696375,243
1643374722060,11071.8696403,-660
1643374722060,11071.8696432,-679
1643374722091,11071.8696461,-329
1643374722091,11071.869649,-262
1643374722091,11071.869653,-286
1643374722091,11071.8696559,-246
1643374722091,11071.8696588,-236
1643374722091,11071.8696617,-239
1643374722091,11071.8696647,-215
1643374722091,11071.8696695,-203
1643374722091,11071.8696743,-206
1643374722091,11071.8696798,-198
1643374722110,11071.8696839,-189
1643374722110,11071.8696884,-184
1643374722110,11071.869693,-175
1643374722110,11071.8696979,-153
1643374722462,11071.8697007,-139
1643374722462,11071.8697036,-132
1643374722462,11071.8697065,-120
1643374722462,11071.8697092,-106
1643374722462,11071.8697119,-94
1643374722462,11071.8697147,-87
1643374722462,11071.8697175,-73
1643374722462,11071.8697204,-44
1643374722462,11071.8697533,-14
1643374722462,11072.4196488,14
1643374722483,11072.4196667,44
1643374722483,11072.4196707,71
1643374722483,11072.4196739,89
1643374722483,11072.4196778,101
1643374722483,11072.4196809,106
1643374722483,11072.419684,89
1643374722483,11072.419687,33
1643374722483,11072.4196928,-52
1643374722483,11072.4196979,-123
1643374722483,11072.4197012,-184
1643374722507,11072.4197061,-241
1643374722507,11072.4197092,-284
1643374722507,11072.4197124,-314
1643374722507,11072.4197154,-341
1643374722507,11072.4197185,-355
1643374722507,11072.4197215,-350
1643374722507,11072.4197245,-348
1643374722507,11072.4197274,-350
1643374722507,11072.4197305,-345
1643374722507,11072.4197335,-336
1643374722531,11072.4197365,-329
1643374722531,11072.4197396,-317
1643374722531,11072.4197426,-300
1643374722531,11072.4197456,-296
1643374722531,11072.4197487,-293
1643374722531,11072.4197517,-284
1643374722531,11072.4197548,-279
1643374722531,11072.4197579,-279
1643374722531,11072.4197609,-272
1643374722531,11072.4197639,-267
1643374722556,11072.4197669,-262
1643374722556,11072.4197699,-258
1643374722556,11072.4197729,-262
1643374722556,11072.4197759,-267
1643374722556,11072.419779,-262
1643374722556,11072.419782,-258
1643374722556,11072.419785,-253
1643374722556,11072.4197879,-248
1643374722556,11072.4197909,-253
1643374722556,11072.4197941,-267
1643374722582,11072.4197971,-274
1643374722582,11072.4198029,-262
1643374722582,11072.4198073,-253
1643374722582,11072.4198103,-255
1643374722582,11072.4198133,-258
1643374722582,11072.4198162,-262
1643374722582,11072.419819,-260
1643374722582,11072.419822,-258
1643374722582,11072.4198361,-258
1643374722582,11072.41985,-260
1643374722616,11072.4198543,-260
1643374722616,11072.4198576,-260
1643374722616,11072.4198605,-258
1643374722616,11072.4198634,-258
1643374722616,11072.4198663,-258
1643374722616,11072.4198691,-258
1643374722616,11072.4198719,-265
1643374722616,11072.4198748,-272
1643374722616,11072.4198776,-274
1643374722616,11072.4198805,-269
1643374722637,11072.4198833,-265
1643374722637,11072.4198862,-262
1643374722637,11072.4198892,-258
1643374722637,11072.4198921,-253
1643374723059,11072.4198949,-255
1643374723059,11072.4198977,-260
1643374723059,11072.4199006,-262
1643374723059,11072.4199034,-262
1643374723059,11072.4199063,-267
1643374723059,11072.4199091,-262
1643374723059,11072.419912,-236
1643374723059,11072.419915,-224
1643374723059,11073.0196795,-232
1643374723059,11073.0196937,-224
1643374723099,11073.0196977,-210
1643374723099,11073.0197034,-224
1643374723099,11073.0197064,-248
1643374723099,11073.0197096,-260
1643374723099,11073.0197126,-281
1643374723099,11073.0197171,-291
1643374723099,11073.0197201,-281
1643374723099,11073.0197232,-281
1643374723099,11073.0197262,-284
1643374723099,11073.0197293,-277
1643374723119,11073.0197324,-274
1643374723119,11073.019736,-272
1643374723119,11073.019739,-269
1643374723119,11073.019742,-267
1643374723119,11073.019745,-265
1643374723119,11073.019748,-286
1643374723119,11073.0197509,-367
1643374723119,11073.019754,-378
1643374723119,11073.0197569,-35
1643374723119,11073.01976,682
1643374723147,11073.019763,1134
1643374723147,11073.0197659,594
1643374723147,11073.019769,-471
1643374723147,11073.019772,-845
1643374723147,11073.019775,-513
1643374723147,11073.0197781,-324
1643374723147,11073.0197812,-348
1643374723147,11073.0197854,-307
1643374723147,11073.0197884,-281
1643374723147,11073.0197914,-305
1643374723171,11073.0197944,-307
1643374723171,11073.0197975,-298
1643374723171,11073.0198005,-293
1643374723171,11073.0198035,-293
1643374723171,11073.0198065,-296
1643374723171,11073.0198096,-291
1643374723171,11073.0198126,-288
1643374723171,11073.0198156,-284
1643374723171,11073.0198186,-269
1643374723171,11073.0198216,-262
1643374723192,11073.0198246,-260
1643374723192,11073.0198276,-248
1643374723192,11073.0198308,-239
1643374723192,11073.0198363,-229
1643374723192,11073.0198394,-206
1643374723192,11073.0198426,-165
1643374723192,11073.0198486,-125
1643374723192,11073.0198517,-89
1643374723192,11073.0198547,-59
1643374723192,11073.0198577,-33
1643374723211,11073.0198609,2
1643374723211,11073.0198661,33
1643374723211,11073.019869,33
1643374723211,11073.019872,23
1643374723211,11073.0198751,9
1643374723211,11073.0198781,-37
1643374723211,11073.0198811,-111
1643374723211,11073.019884,-184
1643374723211,11073.0198871,-248
1643374723211,11073.0198901,-298
1643374723242,11073.0198931,-331
1643374723242,11073.0198961,-359
1643374723242,11073.0198991,-381
1643374723242,11073.0199021,-390
1643374723660,11073.0199051,-395
1643374723660,11073.0199081,-395
1643374723660,11073.019911,-383
1643374723660,11073.0199139,-374
1643374723660,11073.0199169,-371
1643374723660,11073.0199197,-359
1643374723660,11073.0199226,-341
1643374723660,11073.6188922,-329
1643374723660,11073.6189067,-329
1643374723660,11073.6189109,-324
1643374723688,11073.6189162,-312
1643374723688,11073.6189194,-298
1643374723688,11073.6189244,-291
1643374723688,11073.6189276,-284
1643374723688,11073.6189327,-277
1643374723688,11073.6189358,-274
1643374723688,11073.6189409,-279
1643374723688,11073.6189442,-286
1643374723688,11073.6189477,-305
1643374723688,11073.6189508,-312
1643374723717,11073.618954,-296
1643374723717,11073.618957,-293
1643374723717,11073.6189599,-291
1643374723717,11073.618997,-277
1643374723717,11073.6190056,-272
1643374723717,11073.6190093,-281
1643374723717,11073.6190143,-279
1643374723717,11073.6190175,-272
1643374723717,11073.6190219,-267
1643374723717,11073.6190248,-262
1643374723739,11073.6190293,-255
1643374723739,11073.6190331,-255
1643374723739,11073.6190383,-262
1643374723739,11073.6190415,-260
1643374723739,11073.6190478,-246
1643374723739,11073.6190514,-239
1643374723739,11073.6190562,-246
1643374723739,11073.6190594,-251
1643374723739,11073.6190643,-243
1643374723739,11073.6190675,-236
1643374723758,11073.6190723,-234
1643374723758,11073.6190755,-229
1643374723758,11073.6190803,-232
1643374723758,11073.6190835,-241
1643374723758,11073.6190883,-251
1643374723758,11073.6190914,-243
1643374723758,11073.6190964,-217
1643374723758,11073.6190996,-201
1643374723758,11073.6191042,-203
1643374723758,11073.619108,-196
1643374723783,11073.619113,-182
1643374723783,11073.6191162,-191
1643374723783,11073.6191213,-208
1643374723783,11073.6191245,-196
1643374723783,11073.6191295,-187
1643374723783,11073.6191327,-201
1643374723783,11073.6191376,-206
1643374723783,11073.6191412,-194
1643374723783,11073.6191461,-189
1643374723783,11073.6191493,-189
1643374723808,11073.6191542,-189
1643374723808,11073.6191574,-187
1643374723808,11073.6191623,-184
1643374723808,11073.6191654,-182
1643374723808,11073.6191685,-175
1643374723808,11073.6191715,-187
1643374723808,11073.6191754,-262
1643374723808,11073.6191803,-326
1643374723808,11073.6191834,-94
1643374723808,11073.6191866,594
1643374723832,11073.6191916,1278
1643374723832,11073.6191947,1058
1643374723832,11073.6191996,-61
1643374723832,11073.6192027,-774
1643374724229,11073.6192085,-542
1643374724229,11073.6192115,-243
1643374724229,11073.6192145,-260
1643374724229,11073.6192175,-253
1643374724229,11073.6192204,-201
1643374724229,11073.6192233,-213
1643374724229,11074.1659345,-217
1643374724229,11074.1659461,-203
1643374724229,11074.1659498,-201
1643374724229,11074.1659529,-196
1643374724248,11074.1659558,-187
1643374724248,11074.1659588,-177
1643374724248,11074.1659618,-170
1643374724248,11074.1659647,-156
1643374724248,11074.1659676,-142
1643374724248,11074.1659705,-149
1643374724248,11074.1659734,-161
1643374724248,11074.1659762,-142
1643374724248,11074.1659791,-111
1643374724248,11074.1659821,-94
1643374724266,11074.165985,-78
1643374724266,11074.1659879,-56
1643374724266,11074.1659907,-33
1643374724266,11074.1659936,-2
1643374724266,11074.1659965,18
1643374724266,11074.1659994,35
1643374724266,11074.1660023,68
1643374724266,11074.1660053,99
1643374724266,11074.1660081,99
1643374724266,11074.1660109,89
1643374724285,11074.1660138,73
1643374724285,11074.1660166,28
1643374724285,11074.1660194,-47
1643374724285,11074.1660223,-125
1643374724285,11074.1660252,-189
1643374724285,11074.1660283,-243
1643374724285,11074.1660312,-288
1643374724285,11074.166034,-317
1643374724285,11074.1660368,-331
1643374724285,11074.1660397,-336
1643374724308,11074.1660425,-333
1643374724308,11074.1660458,-326
1643374724308,11074.1660487,-319
1643374724308,11074.1660515,-310
1643374724308,11074.1660543,-298
1643374724308,11074.1660573,-286
1643374724308,11074.1660602,-274
1643374724308,11074.166063,-269
1643374724308,11074.1660659,-269
1643374724308,11074.1660687,-262
1643374724334,11074.1660715,-251
1643374724334,11074.1660744,-251
1643374724334,11074.1660772,-251
1643374724334,11074.16608,-243
1643374724334,11074.1660828,-243
1643374724334,11074.1660857,-241
1643374724334,11074.1660885,-236
1643374724334,11074.1660915,-241
1643374724334,11074.1660944,-239
1643374724334,11074.1660972,-232
1643374724367,11074.1661,-234
1643374724367,11074.1661029,-241
1643374724367,11074.1661058,-236
1643374724367,11074.1661086,-224
1643374724367,11074.1661114,-222
1643374724367,11074.1661142,-227
1643374724367,11074.1661171,-224
1643374724367,11074.1661199,-227
1643374724367,11074.1661228,-227
1643374724367,11074.1661257,-220
1643374724386,11074.1661285,-217
1643374724386,11074.1661359,-217
1643374724386,11074.166139,-217
1643374724386,11074.1661418,-217
1643374724764,11074.1661447,-215
1643374724764,11074.1661476,-210
1643374724764,11074.1661505,-203
1643374724764,11074.1661534,-198
1643374724764,11074.1661562,-203
1643374724764,11074.7223603,-206
1643374724764,11074.7223715,-206
1643374724764,11074.722377,-201
1643374724764,11074.7223831,-201
1643374724764,11074.7223864,-206
1643374724783,11074.7223913,-210
1643374724783,11074.7223945,-217
1643374724783,11074.7223994,-222
1643374724783,11074.7224026,-224
1643374724783,11074.7224075,-210
1643374724783,11074.7224108,-189
1643374724783,11074.7224158,-189
1643374724783,11074.722419,-184
1643374724783,11074.722422,-182
1643374724783,11074.722425,-206
1643374724831,11074.722428,-215
1643374724831,11074.722431,-196
1643374724831,11074.722434,-191
1643374724831,11074.722437,-201
1643374724831,11074.7224401,-194
1643374724831,11074.7224431,-187
1643374724831,11074.7224461,-187
1643374724831,11074.7224492,-182
1643374724831,11074.7224543,-184
1643374724831,11074.7224575,-184
1643374724865,11074.7224625,-172
1643374724865,11074.7224656,-168
1643374724865,11074.7224706,-177
1643374724865,11074.7224737,-220
1643374724865,11074.7224792,-300
1643374724865,11074.7224825,-210
1643374724865,11074.7224875,317
1643374724865,11074.7224907,1058
1643374724865,11074.722496,1191
1643374724865,11074.7224991,312
1643374724887,11074.7225043,-603
1643374724887,11074.7225074,-620
1643374724887,11074.7225106,-269
1643374724887,11074.7225378,-208
1643374724887,11074.7225474,-236
1643374724887,11074.7225529,-194
1643374724887,11074.7225562,-187
1643374724887,11074.7225803,-194
1643374724887,11074.7225848,-172
1643374724887,11074.7225881,-158
1643374724905,11074.7225938,-156
1643374724905,11074.722597,-146
1643374724905,11074.722602,-142
1643374724905,11074.7226052,-134
1643374724905,11074.7226102,-120
1643374724905,11074.7226134,-104
1643374724905,11074.7226166,-89
1643374724905,11074.7226196,-82
1643374724905,11074.7226225,-78
1643374724905,11074.7226256,-68
1643374724926,11074.7226306,-54
1643374724926,11074.7226338,-42
1643374724926,11074.7226388,-16
1643374724926,11074.722642,14
1643374724926,11074.722647,35
1643374724926,11074.7226502,61
1643374724926,11074.7226551,97
1643374724926,11074.7226582,127
1643374724926,11074.7226632,142
1643374724926,11074.7226664,151
1643374724949,11074.7226694,156
1643374724949,11074.7226724,142
1643374724949,11074.7226754,106
1643374724949,11074.7226785,54
1643374725342,11074.722684,-18
1643374725342,11074.7226873,-94
1643374725342,11074.7226903,-153
1643374725342,11074.7226933,-201
1643374725342,11075.2695616,-239
1643374725342,11075.269573,-265
1643374725342,11075.2695772,-269
1643374725342,11075.2695802,-281
1643374725342,11075.269583,-296
1643374725342,11075.2695858,-293
1643374725361,11075.2695898,-281
1643374725361,11075.2696247,-281
1643374725361,11075.2696309,-274
1643374725361,11075.2696342,-260
1643374725361,11075.2696371,-258
1643374725361,11075.2696399,-262
1643374725361,11075.2696429,-274
1643374725361,11075.2696467,-296
1643374725361,11075.2696498,-300
1643374725361,11075.2696535,-279
1643374725383,11075.2696565,-277
1643374725383,11075.2696596,-281
1643374725383,11075.2696626,-274
1643374725383,11075.2696655,-269
1643374725383,11075.2696685,-265
1643374725383,11075.2696714,-258
1643374725383,11075.2696744,-255
1643374725383,11075.2696785,-255
1643374725383,11075.2696815,-251
1643374725383,11075.2696856,-243
1643374725408,11075.2696886,-248
1643374725408,11075.2696925,-246
1643374725408,11075.2696966,-243
1643374725408,11075.2696996,-246
1643374725408,11075.2697036,-236
1643374725408,11075.2697067,-229
1643374725408,11075.2697125,-234
1643374725408,11075.2697156,-234
1643374725408,11075.2697195,-232
1643374725408,11075.2697225,-241
1643374725432,11075.2697255,-239
1643374725432,11075.2697285,-232
1643374725432,11075.2697335,-239
1643374725432,11075.2697364,-246
1643374725432,11075.2697393,-236
1643374725432,11075.2697424,-229
1643374725432,11075.2697454,-241
1643374725432,11075.2697484,-241
1643374725432,11075.2697513,-227
1643374725432,11075.2697543,-232
1643374725458,11075.2697572,-241
1643374725458,11075.2697602,-239
1643374725458,11075.2697641,-234
1643374725458,11075.269767,-236
1643374725458,11075.26977,-258
1643374725458,11075.2697731,-281
1643374725458,11075.2697779,-265
1643374725458,11075.2697808,-234
1643374725458,11075.2697839,-227
1643374725458,11075.269788,-232
1643374725492,11075.269791,-217
1643374725492,11075.269795,-198
1643374725492,11075.2697979,-213
1643374725492,11075.2698009,-248
1643374725492,11075.2698039,-253
1643374725492,11075.269808,-239
1643374725492,11075.269811,-251
1643374725492,11075.2698145,-267
1643374725492,11075.2698175,-267
1643374725492,11075.2698205,-267
1643374725509,11075.2698235,-274
1643374725509,11075.2698273,-272
1643374725509,11075.2698314,-272
1643374725509,11075.2698345,-277
1643374725817,11075.2698394,-284
1643374725817,11075.2698423,-288
1643374725817,11075.2698454,-296
1643374725817,11075.7694707,-348
1643374725817,11075.7694834,-435
1643374725817,11075.7694887,-312
1643374725817,11075.7694943,279
1643374725817,11075.7694974,1044
1643374725817,11075.7695018,1058
1643374725817,11075.7695049,26
1643374725837,11075.7695081,-857
1643374725837,11075.7695125,-748
1643374725837,11075.7695155,-369
1643374725837,11075.7695185,-314
1643374725837,11075.7695215,-317
1643374725837,11075.7695245,-265
1643374725837,11075.7695275,-255
1643374725837,11075.7695305,-253
1643374725837,11075.7695361,-234
1643374725837,11075.7695412,-220
1643374725857,11075.7695441,-217
1643374725857,11075.7695473,-213
1643374725857,11075.7695502,-210
1643374725857,11075.7695541,-201
1643374725857,11075.7695571,-191
1643374725857,11075.7695601,-182
1643374725857,11075.7695631,-175
1643374725857,11075.7695662,-165
1643374725857,11075.7695693,-153
1643374725857,11075.7695723,-142
1643374725883,11075.7695754,-132
1643374725883,11075.7695783,-116
1643374725883,11075.7695811,-97
1643374725883,11075.7695839,-66
1643374725883,11075.7695868,-33
1643374725883,11075.7695897,-4
1643374725883,11075.7695926,28
1643374725883,11075.7695954,63
1643374725883,11075.7695983,99
1643374725883,11075.7696013,118
1643374725911,11075.7696043,108
1643374725911,11075.7696073,80
1643374725911,11075.7696104,30
1643374725911,11075.7696135,-40
1643374725911,11075.7696169,-120
1643374725911,11075.7696225,-198
1643374725911,11075.7696263,-262
1643374725911,11075.7696294,-312
1643374725911,11075.7696325,-348
1643374725911,11075.7696355,-371
1643374725933,11075.7696385,-378
1643374725933,11075.7696415,-376
1643374725933,11075.7696445,-369
1643374725933,11075.7696474,-367
1643374725933,11075.7696503,-367
1643374725933,11075.7696534,-350
1643374725933,11075.7696564,-319
1643374725933,11075.7696593,-300
1643374725933,11075.7696624,-298
1643374725933,11075.7696654,-293
1643374725969,11075.7696684,-286
1643374725969,11075.7696715,-291
1643374725969,11075.7696746,-288
1643374725969,11075.7696776,-277
1643374725969,11075.7696808,-269
1643374725969,11075.7696844,-269
1643374725969,11075.7696874,-277
1643374725969,11075.7696905,-279
1643374725969,11075.7696936,-279
1643374725969,11075.7696988,-281
1643374725988,11075.7697019,-281
1643374725988,11075.769705,-284
1643374725988,11075.769708,-286
1643374725988,11075.7697111,-286
1643374726414,11075.7697141,-281
1643374726414,11075.7697171,-279
1643374726414,11076.3698875,-274
1643374726414,11076.3698997,-258
1643374726414,11076.3699033,-255
1643374726414,11076.3699065,-286
1643374726414,11076.3699097,-312
1643374726414,11076.3699126,-300
1643374726414,11076.3699155,-279
1643374726414,11076.3699184,-274
1643374726445,11076.3699213,-277
1643374726445,11076.3699242,-277
1643374726445,11076.3699271,-269
1643374726445,11076.3699299,-260
1643374726445,11076.3699327,-253
1643374726445,11076.3699356,-262
1643374726445,11076.3699384,-269
1643374726445,11076.3699413,-269
1643374726445,11076.3699442,-272
1643374726445,11076.369947,-262
1643374726467,11076.36995,-243
1643374726467,11076.3699528,-220
1643374726467,11076.3699557,-206
1643374726467,11076.3699586,-196
1643374726467,11076.3699615,-184
1643374726467,11076.3699646,-191
1643374726467,11076.3699674,-203
1643374726467,11076.3699703,-198
1643374726467,11076.3699732,-191
1643374726467,11076.3699761,-194
1643374726487,11076.369979,-196
1643374726487,11076.3699818,-201
1643374726487,11076.3699847,-201
1643374726487,11076.3699875,-196
1643374726487,11076.3699904,-198
1643374726487,11076.3699933,-208
1643374726487,11076.3699962,-198
1643374726487,11076.3699991,-179
1643374726487,11076.370002,-182
1643374726487,11076.3700048,-229
1643374726507,11076.3700077,-331
1643374726507,11076.3700106,-338
1643374726507,11076.3700136,78
1643374726507,11076.3700166,909
1643374726507,11076.3700195,1420
1643374726507,11076.3700224,835
1643374726507,11076.3700253,-322
1643374726507,11076.3700284,-743
1643374726507,11076.3700312,-412
1643374726507,11076.3700341,-229
1643374726533,11076.370037,-296
1643374726533,11076.3700399,-296
1643374726533,11076.3700427,-255
1643374726533,11076.3700457,-243
1643374726533,11076.3700486,-215
1643374726533,11076.3700515,-179
1643374726533,11076.3700543,-191
1643374726533,11076.3700572,-220
1643374726533,11076.3700601,-220
1643374726533,11076.370063,-201
1643374726557,11076.370066,-189
1643374726557,11076.3700689,-182
1643374726557,11076.3700718,-170
1643374726557,11076.3700748,-151
1643374726557,11076.3700776,-139
1643374726557,11076.3700804,-125
1643374726557,11076.3700833,-104
1643374726557,11076.3700861,-87
1643374726557,11076.3700889,-66
1643374726557,11076.3700918,-40
1643374726582,11076.3700946,-16
1643374726582,11076.3700975,11
1643374726582,11076.3701004,49
1643374726582,11076.3701033,73
1643374726965,11076.3701062,82
1643374726965,11076.9195986,99
1643374726965,11076.9196108,130
1643374726965,11076.9196146,139
1643374726965,11076.9196177,92
1643374726965,11076.9196206,16
1643374726965,11076.9196235,-63
1643374726965,11076.9196352,-144
1643374726965,11076.9196411,-217
1643374726965,11076.9196442,-296
1643374726987,11076.919647,-364
1643374726987,11076.9196499,-395
1643374726987,11076.9196527,-390
1643374726987,11076.919656,-378
1643374726987,11076.9196593,-378
1643374726987,11076.9196621,-395
1643374726987,11076.9196654,-409
1643374726987,11076.9196685,-404
1643374726987,11076.9196714,-390
1643374726987,11076.9196742,-383
1643374727007,11076.9196771,-397
1643374727007,11076.9196799,-400
1643374727007,11076.9196828,-381
1643374727007,11076.9196857,-367
1643374727007,11076.9196886,-352
1643374727007,11076.9196914,-329
1643374727007,11076.9196943,-303
1643374727007,11076.9196971,-288
1643374727007,11076.9197,-293
1643374727007,11076.9197028,-303
1643374727032,11076.9197057,-286
1643374727032,11076.9197085,-262
1643374727032,11076.9197112,-267
1643374727032,11076.9197141,-272
1643374727032,11076.9197169,-243
1643374727032,11076.9197202,-227
1643374727032,11076.9197231,-234
1643374727032,11076.9197259,-227
1643374727032,11076.9197287,-213
1643374727032,11076.9197315,-215
1643374727060,11076.9197343,-215
1643374727060,11076.9197372,-208
1643374727060,11076.91974,-198
1643374727060,11076.9197429,-182
1643374727060,11076.9197457,-177
1643374727060,11076.9197486,-179
1643374727060,11076.9197515,-172
1643374727060,11076.9197549,-158
1643374727060,11076.9197585,-165
1643374727060,11076.9197614,-184
1643374727092,11076.9197642,-191
1643374727092,11076.919767,-189
1643374727092,11076.9197699,-201
1643374727092,11076.9197727,-222
1643374727092,11076.9197755,-220
1643374727092,11076.9197787,-196
1643374727092,11076.9197815,-172
1643374727092,11076.9197844,-156
1643374727092,11076.9197872,-151
1643374727092,11076.91979,-142
1643374727112,11076.9197929,-118
1643374727112,11076.9197957,-118
1643374727112,11076.9197985,-139
1643374727112,11076.9198015,-139
1643374727112,11076.9198052,-123
1643374727112,11076.9198498,-116
1643374727112,11076.9198547,-123
1643374727112,11076.9198578,-127
1643374727112,11076.9198607,-127
1643374727112,11076.9198636,-125
1643374727132,11076.9198665,-113
1643374727132,11076.9198694,-106
1643374727132,11076.9198722,-120
1643374727132,11076.919875,-132
1643374728119,11077.519605,-132
1643374728119,11077.5196184,-165
1643374728119,11077.5196233,-262
1643374728119,11077.5196277,-227
1643374728119,11077.5196309,269
1643374728119,11077.519634,1124
1643374728119,11077.519637,1461
1643374728119,11077.5196401,625
1643374728119,11077.5196431,-506
1643374728119,11077.519646,-686
1643374728143,11077.5196491,-293
1643374728143,11077.5196521,-194
1643374728143,11077.5196551,-255
1643374728143,11077.5196584,-208
1643374728143,11077.5196625,-177
1643374728143,11077.5196656,-187
1643374728143,11077.5196686,-175
1643374728143,11077.5196715,-151
1643374728143,11077.5196745,-139
1643374728143,11077.5196774,-149
1643374728164,11077.5196804,-163
1643374728164,11077.5196835,-156
1643374728164,11077.5196864,-130
1643374728164,11077.5196894,-118
1643374728164,11077.5196924,-118
1643374728164,11077.5196954,-106
1643374728164,11077.5196983,-97
1643374728164,11077.5197013,-97
1643374728164,11077.5197042,-85
1643374728164,11077.5197072,-54
1643374728182,11077.5197102,-30
1643374728182,11077.5197131,-18
1643374728182,11077.5197161,11
1643374728182,11077.5197193,49
1643374728182,11077.5197249,66
1643374728182,11077.5197279,89
1643374728182,11077.5197308,142
1643374728182,11077.5197339,182
1643374728182,11077.5197369,170
1643374728182,11077.5197399,134
1643374728209,11077.5197429,92
1643374728209,11077.519746,30
1643374728209,11077.519749,-52
1643374728209,11077.5197521,-132
1643374728209,11077.5197551,-187
1643374728209,11077.5197582,-227
1643374728209,11077.5197612,-267
1643374728209,11077.5197642,-286
1643374728209,11077.5197672,-281
1643374728209,11077.5197702,-286
1643374728233,11077.5197732,-288
1643374728233,11077.5197763,-274
1643374728233,11077.5197814,-262
1643374728233,11077.5197862,-255
1643374728233,11077.5197913,-248
1643374728233,11077.5197961,-236
1643374728233,11077.5198014,-224
1643374728233,11077.5198046,-213
1643374728233,11077.5198077,-208
1643374728233,11077.5198502,-208
1643374728269,11077.519855,-203
1643374728269,11077.5198593,-194
1643374728269,11077.5198624,-184
1643374728269,11077.5198655,-177
1643374728269,11077.5198685,-163
1643374728269,11077.5198715,-144
1643374728269,11077.5198745,-139
1643374728269,11077.5198774,-158
1643374728269,11077.5198804,-172
1643374728269,11077.5198835,-168
1643374728289,11077.5198866,-158
1643374728289,11077.5198896,-153
1643374728289,11077.5198926,-156
1643374728289,11078.0757639,-144
1643374728672,11078.0757764,-125
1643374728672,11078.0757801,-127
1643374728672,11078.0757833,-130
1643374728672,11078.0757863,-118
1643374728672,11078.0757893,-123
1643374728672,11078.0757922,-137
1643374728672,11078.0757951,-130
1643374728672,11078.0757981,-125
1643374728672,11078.0758014,-123
1643374728672,11078.075886,-116
1643374728692,11078.0758927,-127
1643374728692,11078.0758959,-158
1643374728692,11078.0759622,-168
1643374728692,11078.075973,-146
1643374728692,11078.0759768,-134
1643374728692,11078.0759799,-149
1643374728692,11078.0761716,-161
1643374728692,11078.076176,-163
1643374728692,11078.076179,-175
1643374728692,11078.0761819,-194
1643374728712,11078.0761848,-203
1643374728712,11078.0761877,-191
1643374728712,11078.0761906,-182
1643374728712,11078.0761935,-201
1643374728712,11078.0761964,-213
1643374728712,11078.0761993,-203
1643374728712,11078.0762022,-201
1643374728712,11078.0762051,-229
1643374728712,11078.076208,-255
1643374728712,11078.0762109,-255
1643374728741,11078.0762142,-248
1643374728741,11078.0762171,-258
1643374728741,11078.07622,-274
1643374728741,11078.0762229,-274
1643374728741,11078.0762258,-267
1643374728741,11078.0762287,-265
1643374728741,11078.0762316,-255
1643374728741,11078.0762346,-241
1643374728741,11078.0762383,-229
1643374728741,11078.0762411,-220
1643374728763,11078.076244,-213
1643374728763,11078.0762469,-241
1643374728763,11078.0762499,-331
1643374728763,11078.0762528,-300
1643374728763,11078.0762558,156
1643374728763,11078.0762587,949
1643374728763,11078.0762617,1288
1643374728763,11078.0762646,551
1643374728763,11078.0762675,-492
1643374728763,11078.0762704,-686
1643374728782,11078.0762733,-322
1643374728782,11078.0762762,-206
1643374728782,11078.0762794,-246
1643374728782,11078.0762824,-198
1643374728782,11078.0762853,-175
1643374728782,11078.0762882,-191
1643374728782,11078.0762912,-177
1643374728782,11078.0762941,-151
1643374728782,11078.076297,-146
1643374728782,11078.0763008,-144
1643374728807,11078.0763042,-132
1643374728807,11078.0763071,-120
1643374728807,11078.07631,-108
1643374728807,11078.0763129,-94
1643374728807,11078.0763159,-94
1643374728807,11078.0763245,-92
1643374728807,11078.0763275,-71
1643374728807,11078.0763304,-52
1643374728807,11078.0763334,-35
1643374728807,11078.0763364,-14
1643374728832,11078.0763393,11
1643374728832,11078.0763423,33
1643374728832,11078.6231788,59
1643374728832,11078.6231929,89
1643374729266,11078.6231967,113
1643374729266,11078.6231998,132
1643374729266,11078.6232027,149
1643374729266,11078.6232056,163
1643374729266,11078.6232086,163
1643374729266,11078.6232115,142
1643374729266,11078.6232144,113
1643374729266,11078.6232172,66
1643374729266,11078.6232202,-26
1643374729266,11078.6232231,-125
1643374729293,11078.6232261,-189
1643374729293,11078.623229,-222
1643374729293,11078.6232318,-255
1643374729293,11078.6232347,-284
1643374729293,11078.6232376,-296
1643374729293,11078.6232405,-303
1643374729293,11078.6232433,-300
1643374729293,11078.6232462,-291
1643374729293,11078.623249,-281
1643374729293,11078.6232518,-267
1643374729313,11078.6232546,-262
1643374729313,11078.6232574,-269
1643374729313,11078.6232602,-262
1643374729313,11078.6232631,-258
1643374729313,11078.6232659,-262
1643374729313,11078.6232688,-253
1643374729313,11078.6232718,-243
1643374729313,11078.6232747,-243
1643374729313,11078.6232775,-243
1643374729313,11078.6232804,-236
1643374729331,11078.6232833,-229
1643374729331,11078.6232861,-229
1643374729331,11078.6232889,-232
1643374729331,11078.6232919,-227
1643374729331,11078.6232947,-229
1643374729331,11078.6232975,-239
1643374729331,11078.6233004,-243
1643374729331,11078.6233033,-239
1643374729331,11078.6233061,-236
1643374729331,11078.6233089,-234
1643374729356,11078.6233118,-227
1643374729356,11078.6233146,-222
1643374729356,11078.6233174,-220
1643374729356,11078.6233205,-213
1643374729356,11078.6233738,-208
1643374729356,11078.6233881,-201
1643374729356,11078.6233926,-191
1643374729356,11078.6233958,-189
1643374729356,11078.6233988,-184
1643374729356,11078.6234016,-179
1643374729382,11078.6234045,-177
1643374729382,11078.6234073,-170
1643374729382,11078.6234102,-163
1643374729382,11078.6234131,-158
1643374729382,11078.6234159,-161
1643374729382,11078.6234188,-163
1643374729382,11078.6234217,-161
1643374729382,11078.6234245,-156
1643374729382,11078.6234274,-156
1643374729382,11078.6234328,-153
1643374729417,11078.6234539,-151
1643374729417,11078.6234739,-153
1643374729417,11078.6234787,-161
1643374729417,11078.6234819,-165
1643374729417,11078.6234848,-158
1643374729417,11078.6234877,-139
1643374729417,11078.6234905,-120
1643374729417,11078.6234934,-116
1643374729417,11078.6234963,-116
1643374729417,11078.6234991,-108
1643374729441,11078.623502,-101
1643374729441,11079.2206437,-116
1643374729441,11079.2206568,-132
1643374729441,11079.2206605,-132
1643374729810,11079.2206636,-130
1643374729810,11079.2206667,-134
1643374729810,11079.2206696,-134
1643374729810,11079.2206726,-132
1643374729810,11079.2206756,-127
1643374729810,11079.2206785,-134
1643374729810,11079.2206814,-170
1643374729810,11079.2206843,-184
1643374729810,11079.2206873,-158
1643374729810,11079.2206902,-153
1643374729832,11079.2206932,-168
1643374729832,11079.2206962,-201
1643374729832,11079.2206992,-277
1643374729832,11079.2207021,-196
1643374729832,11079.2207051,307
1643374729832,11079.220708,992
1643374729832,11079.2207109,1032
1643374729832,11079.2207827,151
1643374729832,11079.220791,-639
1643374729832,11079.2207958,-589
1643374729856,11079.2207991,-267
1643374729856,11079.2208023,-198
1643374729856,11079.2208054,-184
1643374729856,11079.2208084,-132
1643374729856,11079.2208113,-144
1643374729856,11079.2208142,-156
1643374729856,11079.2208171,-127
1643374729856,11079.22082,-113
1643374729856,11079.2208229,-111
1643374729856,11079.2208259,-101
1643374729892,11079.220829,-99
1643374729892,11079.2208319,-97
1643374729892,11079.2208348,-82
1643374729892,11079.2208377,-66
1643374729892,11079.2208406,-56
1643374729892,11079.2208435,-52
1643374729892,11079.2208463,-40
1643374729892,11079.2208493,-23
1643374729892,11079.2208522,-11
1643374729892,11079.2208552,2
1643374729911,11079.2208581,26
1643374729911,11079.220861,49
1643374729911,11079.2208639,73
1643374729911,11079.2208668,97
1643374729911,11079.2208697,120
1643374729911,11079.2208725,134
1643374729911,11079.2208753,146
1643374729911,11079.2208783,163
1643374729911,11079.2208811,170
1643374729911,11079.220884,158
1643374729932,11079.2208869,132
1643374729932,11079.2208898,85
1643374729932,11079.2208927,18
1643374729932,11079.2208957,-47
1643374729932,11079.2208987,-108
1643374729932,11079.2209016,-158
1643374729932,11079.2209045,-189
1643374729932,11079.2209075,-213
1643374729932,11079.2209104,-229
1643374729932,11079.2209133,-236
1643374729957,11079.2209162,-239
1643374729957,11079.2209192,-239
1643374729957,11079.2209221,-229
1643374729957,11079.220925,-210
1643374729957,11079.2209279,-201
1643374729957,11079.2209308,-194
1643374729957,11079.2209337,-184
1643374729957,11079.2209367,-177
1643374729957,11079.2209396,-175
1643374729957,11079.2209425,-170
1643374729987,11079.7698898,-161
1643374729987,11079.7699149,-156
1643374729987,11079.7699222,-156
1643374729987,11079.7699271,-149
1643374730367,11079.7699314,-142
1643374730367,11079.7699345,-137
1643374730367,11079.7699374,-130
1643374730367,11079.7699404,-127
1643374730367,11079.7699434,-130
1643374730367,11079.7699462,-132
1643374730367,11079.7699491,-132
1643374730367,11079.7699519,-137
1643374730367,11079.7699549,-134
1643374730367,11079.7699577,-134
1643374730386,11079.7699605,-161
1643374730386,11079.7699633,-179
1643374730386,11079.7699662,-163
1643374730386,11079.7699691,-153
1643374730386,11079.769972,-153
1643374730386,11079.7699748,-149
1643374730386,11079.7699777,-151
1643374730386,11079.7699805,-153
1643374730386,11079.7699837,-142
1643374730386,11079.7699867,-137
1643374730407,11079.7699897,-144
1643374730407,11079.7699927,-146
1643374730407,11079.7699957,-144
1643374730407,11079.7699987,-149
1643374730407,11079.7700017,-151
1643374730407,11079.7700047,-144
1643374730407,11079.7700078,-144
1643374730407,11079.7700109,-146
1643374730407,11079.7700152,-146
1643374730407,11079.7700184,-149
1643374730431,11079.7700215,-158
1643374730431,11079.7700256,-165
1643374730431,11079.7700288,-168
1643374730431,11079.7700322,-168
1643374730431,11079.7700363,-156
1643374730431,11079.7700394,-144
1643374730431,11079.7700425,-144
1643374730431,11079.7700455,-144
1643374730431,11079.7700496,-132
1643374730431,11079.7700527,-137
1643374730459,11079.7700559,-158
1643374730459,11079.7700617,-170
1643374730459,11079.7700647,-163
1643374730459,11079.7700677,-161
1643374730459,11079.7700707,-163
1643374730459,11079.7700738,-163
1643374730459,11079.7700768,-165
1643374730459,11079.7700799,-175
1643374730459,11079.770083,-177
1643374730459,11079.770086,-177
1643374730482,11079.7700891,-177
1643374730482,11079.7700922,-175
1643374730482,11079.7700951,-172
1643374730482,11079.7700981,-184
1643374730482,11079.770101,-243
1643374730482,11079.770104,-314
1643374730482,11079.7701072,-156
1643374730482,11079.7701103,426
1643374730482,11079.7701146,1068
1643374730482,11079.7701177,925
1643374730507,11079.7701208,-63
1643374730507,11079.7701265,-762
1643374730507,11079.7701296,-610
1643374730507,11079.770134,-314
1643374730507,11079.770137,-265
1643374730507,11079.7701403,-227
1643374730507,11079.7701433,-172
1643374730507,11079.7701465,-179
1643374730507,11079.7701532,-179
1643374730507,11080.3195996,-161
1643374730542,11080.3196129,-156
1643374730542,11080.319618,-153
1643374730542,11080.3196234,-142
1643374730542,11080.3196267,-134
1643374730911,11080.3196314,-125
1643374730911,11080.3196344,-118
1643374730911,11080.3196373,-101
1643374730911,11080.3196401,-82
1643374730911,11080.3196429,-66
1643374730911,11080.3196463,-49
1643374730911,11080.3196491,-33
1643374730911,11080.3196519,-33
1643374730911,11080.3196547,-33
1643374730911,11080.3196574,-2
1643374730933,11080.3196603,42
1643374730933,11080.3196631,61
1643374730933,11080.3196659,78
1643374730933,11080.3196688,116
1643374730933,11080.3196716,134
1643374730933,11080.3196744,142
1643374730933,11080.3196773,165
1643374730933,11080.3196803,177
1643374730933,11080.3196833,156
1643374730933,11080.3196862,113
1643374730964,11080.3196892,47
1643374730964,11080.3196922,-37
1643374730964,11080.3196952,-113
1643374730964,11080.3196982,-182
1643374730964,11080.3197013,-234
1643374730964,11080.3197043,-277
1643374730964,11080.3197074,-312
1643374730964,11080.3197104,-333
1643374730964,11080.3197134,-336
1643374730964,11080.3197164,-333
1643374730984,11080.3197194,-331
1643374730984,11080.3197224,-319
1643374730984,11080.3197254,-305
1643374730984,11080.3197285,-303
1643374730984,11080.3197314,-298
1643374730984,11080.3197344,-288
1643374730984,11080.3197374,-281
1643374730984,11080.3197405,-279
1643374730984,11080.3197435,-279
1643374730984,11080.3197465,-277
1643374731014,11080.3197496,-274
1643374731014,11080.3197526,-274
1643374731014,11080.3197556,-269
1643374731014,11080.3197586,-272
1643374731014,11080.3197616,-281
1643374731014,11080.3197647,-281
1643374731014,11080.3197678,-272
1643374731014,11080.319771,-272
1643374731014,11080.3197895,-269
1643374731014,11080.3197941,-258
1643374731049,11080.319797,-251
1643374731049,11080.3198012,-253
1643374731049,11080.3198044,-253
1643374731049,11080.3198075,-251
1643374731049,11080.3198104,-243
1643374731049,11080.3198132,-239
1643374731049,11080.319816,-239
1643374731049,11080.3198191,-241
1643374731049,11080.3198219,-239
1643374731049,11080.3198249,-229
1643374731074,11080.3198277,-229
1643374731074,11080.3198306,-234
1643374731074,11080.3198335,-234
1643374731074,11080.3198365,-236
1643374731074,11080.3198394,-243
1643374731074,11080.3198422,-251
1643374731074,11080.319845,-255
1643374731074,11080.3198478,-262
1643374731074,11080.8713874,-260
1643374731074,11080.8713992,-234
1643374731094,11080.871403,-208
1643374731094,11080.8714063,-198
1643374731094,11080.8714092,-196
1643374731094,11080.8714122,-179
1643374731568,11080.8714151,-177
1643374731568,11080.871418,-198
1643374731568,11080.8714209,-206
1643374731568,11080.8714238,-189
1643374731568,11080.8714267,-189
1643374731568,11080.8714297,-217
1643374731568,11080.8714326,-239
1643374731568,11080.8714355,-227
1643374731568,11080.8714384,-217
1643374731568,11080.8714414,-215
1643374731591,11080.8714443,-203
1643374731591,11080.8714472,-198
1643374731591,11080.8714501,-198
1643374731591,11080.871453,-189
1643374731591,11080.871456,-184
1643374731591,11080.8714589,-241
1643374731591,11080.8714619,-324
1643374731591,11080.8714648,-179
1643374731591,11080.8714678,400
1643374731591,11080.8714707,1120
1643374731612,11080.8714737,1127
1643374731612,11080.8714767,149
1643374731612,11080.8714797,-693
1643374731612,11080.8714826,-592
1643374731612,11080.8714855,-246
1643374731612,11080.8714885,-220
1643374731612,11080.8714914,-236
1643374731612,11080.8714943,-184
1643374731612,11080.8714973,-182
1643374731612,11080.8715002,-182
1643374731631,11080.8715031,-163
1643374731631,11080.871506,-161
1643374731631,11080.8715258,-153
1643374731631,11080.8715291,-134
1643374731631,11080.871532,-125
1643374731631,11080.871535,-120
1643374731631,11080.871538,-104
1643374731631,11080.871541,-87
1643374731631,11080.8715439,-73
1643374731631,11080.871547,-54
1643374731656,11080.87155,-37
1643374731656,11080.8715539,-21
1643374731656,11080.8715569,0
1643374731656,11080.8715603,18
1643374731656,11080.8715633,40
1643374731656,11080.8715663,61
1643374731656,11080.8715692,94
1643374731656,11080.8715722,123
1643374731656,11080.8715751,142
1643374731656,11080.8715781,165
1643374731682,11080.871581,184
1643374731682,11080.8715839,189
1643374731682,11080.8715868,187
1643374731682,11080.8715897,170
1643374731682,11080.8715928,130
1643374731682,11080.8715958,54
1643374731682,11080.8715987,-28
1643374731682,11080.8716017,-89
1643374731682,11080.8716046,-139
1643374731682,11080.8716078,-187
1643374731718,11080.8716108,-222
1643374731718,11080.8716138,-236
1643374731718,11080.8716167,-243
1643374731718,11080.8716197,-253
1643374731718,11080.8716226,-255
1643374731718,11080.8716255,-248
1643374731718,11080.8716284,-241
1643374731718,11081.5232932,-232
1643374731718,11081.5233095,-213
1643374731718,11081.523314,-206
1643374731737,11081.5233428,-210
1643374731737,11081.5233485,-206
1643374731737,11081.5233519,-194
1643374731737,11081.5233549,-196
1643374732008,11081.5233579,-201
1643374732008,11081.5233608,-194
1643374732008,11081.5233638,-206
1643374732008,11081.5233667,-239
1643374732008,11081.5233697,-243
1643374732008,11081.5233726,-224
1643374732008,11081.5233755,-224
1643374732008,11081.5233784,-227
1643374732008,11081.5233813,-215
1643374732008,11081.5233842,-210
1643374732046,11081.5233872,-210
1643374732046,11081.5233901,-203
1643374732046,11081.523393,-198
1643374732046,11081.523396,-196
1643374732046,11081.523399,-196
1643374732046,11081.5234019,-189
1643374732046,11081.5234048,-184
1643374732046,11081.5234078,-182
1643374732046,11081.5234107,-177
1643374732046,11081.5234139,-172
1643374732067,11081.5234168,-170
1643374732067,11081.5234196,-165
1643374732067,11081.5234225,-165
1643374732067,11081.5234254,-175
1643374732067,11081.5234283,-177
1643374732067,11081.5234313,-177
1643374732067,11081.5234342,-170
1643374732067,11081.5234371,-146
1643374732067,11081.52344,-134
1643374732067,11081.5234429,-139
1643374732089,11081.5234459,-130
1643374732089,11081.5234488,-106
1643374732089,11081.5234518,-111
1643374732089,11081.5234546,-139
1643374732089,11081.5234576,-144
1643374732089,11081.5234604,-132
1643374732089,11081.5234633,-137
1643374732089,11081.5234661,-146
1643374732089,11081.523469,-144
1643374732089,11081.523472,-139
1643374732110,11081.5234749,-144
1643374732110,11081.5234778,-151
1643374732110,11081.5234807,-146
1643374732110,11081.5234836,-139
1643374732110,11081.5234865,-134
1643374732110,11081.5234895,-127
1643374732110,11081.5234928,-132
1643374732110,11081.5234966,-179
1643374732110,11081.5235216,-269
1643374732110,11081.5235261,-227
1643374732132,11081.5235295,194
1643374732132,11081.5235326,904
1643374732132,11081.5235356,1174
1643374732132,11081.5235386,440
1643374732132,11081.5235417,-532
1643374732132,11081.5235446,-684
1643374732132,11081.5235476,-329
1643374732132,11081.523551,-194
1643374732132,11081.523554,-196
1643374732132,11081.5235569,-151
1643374732156,11081.52356,-142
1643374732156,11081.5235629,-156
1643374732156,11081.5235659,-142
1643374732156,11081.5235688,-127
1643374732156,11081.5235718,-125
1643374732156,11081.5235748,-116
1643374732156,11081.9705473,-104
1643374732156,11081.9705588,-99
1643374732156,11081.9705625,-94
1643374732156,11081.9705656,-80
1643374732181,11081.9705686,-73
1643374732181,11081.9705715,-66
1643374732181,11081.9705744,-52
1643374732181,11081.9705773,-33
1643374732608,11081.9705803,-21
1643374732608,11081.9705832,-9
1643374732608,11081.9705862,9
1643374732608,11081.9705891,42
1643374732608,11081.970592,75
1643374732608,11081.9705949,99
1643374732608,11081.9705978,123
1643374732608,11081.9706006,142
1643374732608,11081.9706035,158
1643374732608,11081.9706064,170
1643374732631,11081.9706092,179
1643374732631,11081.9706121,170
1643374732631,11081.9706149,132
1643374732631,11081.9706178,56
1643374732631,11081.9706207,-33
1643374732631,11081.9706236,-94
1643374732631,11081.9706264,-139
1643374732631,11081.9706292,-189
1643374732631,11081.9706321,-222
1643374732631,11081.970635,-239
1643374732659,11081.9706379,-251
1643374732659,11081.9706408,-267
1643374732659,11081.9706437,-274
1643374732659,11081.9706466,-265
1643374732659,11081.9706495,-255
1643374732659,11081.9706523,-248
1643374732659,11081.9706552,-236
1643374732659,11081.970658,-229
1643374732659,11081.9706608,-227
1643374732659,11081.9706637,-217
1643374732682,11081.9706665,-208
1643374732682,11081.9706694,-203
1643374732682,11081.9706722,-208
1643374732682,11081.9706751,-210
1643374732682,11081.9706779,-201
1643374732682,11081.9706808,-196
1643374732682,11081.970684,-194
1643374732682,11081.9706869,-191
1643374732682,11081.9706897,-191
1643374732682,11081.9706927,-203
1643374732716,11081.9706955,-198
1643374732716,11081.9706984,-194
1643374732716,11081.9707013,-201
1643374732716,11081.9707041,-206
1643374732716,11081.970707,-201
1643374732716,11081.9707099,-196
1643374732716,11081.9707128,-194
1643374732716,11081.9707157,-196
1643374732716,11081.9707185,-198
1643374732716,11081.9707213,-194
1643374732735,11081.9707241,-191
1643374732735,11081.970727,-194
1643374732735,11081.9707299,-191
1643374732735,11081.9707328,-184
1643374732735,11081.9707356,-187
1643374732735,11081.9707385,-194
1643374732735,11081.9707414,-201
1643374732735,11081.9707442,-206
1643374732735,11081.9707471,-208
1643374732735,11081.9707537,-191
1643374732756,11081.9707569,-170
1643374732756,11081.9707599,-165
1643374732756,11081.9707628,-168
1643374732756,11081.9707657,-158
1643374732756,11081.9707686,-146
1643374732756,11082.5695303,-168
1643374732756,11082.5695437,-187
1643374732756,11082.569549,-177
1643374732756,11082.5695546,-172
1643374732756,11082.5695578,-179
1643374732781,11082.5695627,-179
1643374732781,11082.5695658,-187
1643374732781,11082.5695709,-213
1643374732781,11082.5695744,-222
1643374733224,11082.5695797,-198
1643374733224,11082.5695826,-191
1643374733224,11082.5695855,-198
1643374733224,11082.5695884,-191
1643374733224,11082.5695912,-187
1643374733224,11082.569594,-208
1643374733224,11082.5695969,-274
1643374733224,11082.5695997,-314
1643374733224,11082.5696025,-42
1643374733224,11082.5696054,658
1643374733243,11082.5696082,1214
1643374733243,11082.5696111,805
1643374733243,11082.5696139,-288
1643374733243,11082.5696168,-798
1643374733243,11082.5696196,-504
1643374733243,11082.5696225,-258
1643374733243,11082.5696253,-248
1643374733243,11082.5696286,-208
1643374733243,11082.5696358,-184
1643374733243,11082.5696389,-206
1643374733260,11082.569642,-194
1643374733260,11082.5696451,-175
1643374733260,11082.5696503,-170
1643374733260,11082.5696548,-163
1643374733260,11082.5696578,-151
1643374733260,11082.5696609,-144
1643374733260,11082.5696639,-137
1643374733260,11082.5696669,-127
1643374733260,11082.5696699,-116
1643374733260,11082.569673,-101
1643374733285,11082.5696762,-89
1643374733285,11082.5696822,-82
1643374733285,11082.5696855,-61
1643374733285,11082.5696905,-35
1643374733285,11082.5696936,-7
1643374733285,11082.5696991,18
1643374733285,11082.5697023,40
1643374733285,11082.5697077,63
1643374733285,11082.5697108,89
1643374733285,11082.5697138,116
1643374733312,11082.5697169,142
1643374733312,11082.56972,161
1643374733312,11082.569723,168
1643374733312,11082.5697261,158
1643374733312,11082.5697292,120
1643374733312,11082.5697323,73
1643374733312,11082.5697378,16
1643374733312,11082.569741,-56
1643374733312,11082.5697462,-127
1643374733312,11082.5697494,-182
1643374733335,11082.5697543,-224
1643374733335,11082.5697575,-253
1643374733335,11082.5697629,-265
1643374733335,11082.5697661,-269
1643374733335,11082.5697693,-272
1643374733335,11082.5697743,-267
1643374733335,11082.5697775,-255
1643374733335,11082.5697827,-241
1643374733335,11082.5697861,-234
1643374733335,11082.5697913,-234
1643374733369,11082.5697973,-236
1643374733369,11082.5698007,-241
1643374733369,11082.5698058,-241
1643374733369,11082.5698091,-243
1643374733369,11083.1670383,-253
1643374733369,11083.1670516,-269
1643374733369,11083.1670569,-286
1643374733369,11083.1670618,-286
1643374733369,11083.1670661,-277
1643374733369,11083.1670706,-286
1643374733389,11083.1670738,-291
1643374733389,11083.1670779,-274
1643374733389,11083.1670821,-269
1643374733389,11083.1670852,-279
1643374733831,11083.1670883,-267
1643374733831,11083.1670913,-255
1643374733831,11083.1670943,-262
1643374733831,11083.1670972,-267
1643374733831,11083.1671001,-241
1643374733831,11083.1671029,-217
1643374733831,11083.1671059,-220
1643374733831,11083.1671088,-232
1643374733831,11083.1671118,-222
1643374733831,11083.1671147,-206
1643374733880,11083.1671262,-213
1643374733880,11083.1671307,-234
1643374733880,11083.1671336,-241
1643374733880,11083.1671369,-224
1643374733880,11083.1671401,-203
1643374733880,11083.1671456,-196
1643374733880,11083.1671486,-191
1643374733880,11083.1671517,-170
1643374733880,11083.1671558,-144
1643374733880,11083.167159,-151
1643374733913,11083.1671621,-182
1643374733913,11083.1671651,-175
1643374733913,11083.1671682,-149
1643374733913,11083.1671712,-158
1643374733913,11083.1671743,-161
1643374733913,11083.1671774,-146
1643374733913,11083.1671805,-144
1643374733913,11083.1671835,-153
1643374733913,11083.1671866,-163
1643374733913,11083.1671896,-170
1643374733935,11083.1671927,-158
1643374733935,11083.1671959,-142
1643374733935,11083.167201,-134
1643374733935,11083.1672039,-144
1643374733935,11083.1672069,-196
1643374733935,11083.1672101,-291
1643374733935,11083.1672132,-253
1643374733935,11083.1672174,191
1643374733935,11083.1672206,956
1643374733935,11083.1672237,1262
1643374733955,11083.1672271,487
1643374733955,11083.1672319,-563
1643374733955,11083.1672349,-727
1643374733955,11083.167238,-355
1643374733955,11083.1672411,-248
1643374733955,11083.1672443,-281
1643374733955,11083.1672485,-234
1643374733955,11083.1672517,-213
1643374733955,11083.1672558,-224
1643374733955,11083.167259,-208
1643374733976,11083.1672631,-177
1643374733976,11083.1672662,-163
1643374733976,11083.1672713,-161
1643374733976,11083.1672744,-158
1643374733976,11083.1672775,-144
1643374733976,11083.1672806,-127
1643374733976,11083.1672837,-111
1643374733976,11083.1672879,-94
1643374733976,11083.167291,-80
1643374733976,11083.1672941,-59
1643374733995,11083.1672973,-28
1643374733995,11083.1673022,-14
1643374733995,11083.1673052,9
1643374733995,11083.7707032,42
1643374733995,11083.7707147,66
1643374733995,11083.7707187,101
1643374733995,11083.770722,142
1643374733995,11083.770725,168
1643374733995,11083.7707284,184
1643374733995,11083.7707313,198
1643374734015,11083.7707342,198
1643374734015,11083.7707371,194
1643374734015,11083.77074,189
1643374734015,11083.7707428,149
1643374734260,11083.7707456,71
1643374734260,11083.7707484,9
1643374734260,11083.7707512,-49
1643374734260,11083.7707541,-123
1643374734260,11083.7707569,-177
1643374734260,11083.7707597,-215
1643374734260,11083.7707625,-258
1643374734260,11083.7707654,-291
1643374734260,11083.7707684,-293
1643374734260,11083.7707712,-291
1643374734280,11083.7707741,-293
1643374734280,11083.7707769,-291
1643374734280,11083.7707797,-281
1643374734280,11083.7707826,-274
1643374734280,11083.7708681,-279
1643374734280,11083.7708731,-281
1643374734280,11083.7708762,-267
1643374734280,11083.7708791,-253
1643374734280,11083.7709234,-253
1643374734280,11083.7709299,-248
1643374734305,11083.7709331,-239
1643374734305,11083.7709359,-232
1643374734305,11083.7709389,-222
1643374734305,11083.7709418,-222
1643374734305,11083.7709447,-224
1643374734305,11083.7709476,-220
1643374734305,11083.7709505,-213
1643374734305,11083.7709534,-208
1643374734305,11083.7709564,-208
1643374734305,11083.7709593,-213
1643374734330,11083.7709622,-220
1643374734330,11083.7709651,-206
1643374734330,11083.770968,-175
1643374734330,11083.770971,-168
1643374734330,11083.7709739,-175
1643374734330,11083.7709769,-170
1643374734330,11083.7709798,-161
1643374734330,11083.7709827,-161
1643374734330,11083.7709856,-163
1643374734330,11083.7709885,-165
1643374734356,11083.7709914,-165
1643374734356,11083.7709943,-158
1643374734356,11083.7709972,-142
1643374734356,11083.7710002,-125
1643374734356,11083.7710031,-120
1643374734356,11083.771006,-116
1643374734356,11083.7710089,-99
1643374734356,11083.7710119,-87
1643374734356,11083.7710148,-104
1643374734356,11083.7710177,-118
1643374734389,11083.7710207,-104
1643374734389,11083.7710236,-97
1643374734389,11083.7710266,-101
1643374734389,11083.7710296,-106
1643374734389,11083.7710325,-116
1643374734389,11083.7710354,-118
1643374734389,11083.7710384,-111
1643374734389,11083.7710413,-118
1643374734389,11083.7710443,-127
1643374734389,11083.7710472,-127
1643374734412,11083.7710501,-127
1643374734412,11083.771053,-132
1643374734412,11084.2207777,-139
1643374734412,11084.2207957,-168
1643374734412,11084.2208004,-243
1643374734412,11084.2208037,-241
1643374734412,11084.2208067,127
1643374734412,11084.2208096,859
1643374734412,11084.2208126,1264
1643374734412,11084.2208155,637
1643374734431,11084.2208185,-449
1643374734431,11084.2208213,-776
1643374734431,11084.2208242,-428
1643374734431,11084.2208271,-227
1643374734857,11084.22083,-208
1643374734857,11084.2208329,-161
1643374734857,11084.2208358,-172
1643374734857,11084.2208387,-220
1643374734857,11084.2208415,-201
1643374734857,11084.2208444,-139
1643374734857,11084.2208473,-120
1643374734857,11084.2208501,-137
1643374734857,11084.220853,-151
1643374734857,11084.2208558,-177
1643374734890,11084.2208587,-232
1643374734890,11084.2208615,-265
1643374734890,11084.2208645,-234
1643374734890,11084.2208674,-196
1643374734890,11084.2208703,-187
1643374734890,11084.2208732,-189
1643374734890,11084.2208761,-203
1643374734890,11084.2208789,-208
1643374734890,11084.2208818,-179
1643374734890,11084.2208847,-149
1643374734908,11084.2208876,-130
1643374734908,11084.2208904,-101
1643374734908,11084.2208933,-56
1643374734908,11084.2208962,7
1643374734908,11084.2208992,68
1643374734908,11084.220902,101
1643374734908,11084.2209049,123
1643374734908,11084.2209078,137
1643374734908,11084.2209106,108
1643374734908,11084.2209135,26
1643374734932,11084.2209163,-61
1643374734932,11084.2209192,-130
1643374734932,11084.2209221,-189
1643374734932,11084.2209251,-243
1643374734932,11084.2209281,-281
1643374734932,11084.220931,-307
1643374734932,11084.2209339,-336
1643374734932,11084.2209368,-352
1643374734932,11084.2209397,-355
1643374734932,11084.2209426,-352
1643374734956,11084.2209455,-333
1643374734956,11084.2209483,-310
1643374734956,11084.2209512,-298
1643374734956,11084.2209541,-277
1643374734956,11084.220957,-258
1643374734956,11084.2209599,-253
1643374734956,11084.220963,-246
1643374734956,11084.2209659,-248
1643374734956,11084.2209688,-258
1643374734956,11084.2209717,-253
1643374734988,11084.2209745,-251
1643374734988,11084.2209775,-265
1643374734988,11084.2209803,-260
1643374734988,11084.2209833,-234
1643374734988,11084.2209862,-217
1643374734988,11084.2209892,-206
1643374734988,11084.2209922,-191
1643374734988,11084.2209951,-187
1643374734988,11084.2209981,-182
1643374734988,11084.221001,-168
1643374735013,11084.2210039,-153
1643374735013,11084.8173862,-149
1643374735013,11084.8173993,-144
1643374735013,11084.8174053,-139
1643374735013,11084.8174106,-132
1643374735013,11084.8174135,-132
1643374735013,11084.8174166,-134
1643374735013,11084.8174207,-144
1643374735013,11084.8174237,-168
1643374735013,11084.817428,-177
1643374735047,11084.817431,-142
1643374735047,11084.817434,-130
1643374735047,11084.817437,-151
1643374735047,11084.81744,-139
1643374735429,11084.8174431,-106
1643374735429,11084.817446,-111
1643374735429,11084.8174487,-137
1643374735429,11084.8174515,-132
1643374735429,11084.8174544,-111
1643374735429,11084.8174572,-108
1643374735429,11084.81746,-108
1643374735429,11084.8174628,-113
1643374735429,11084.8174656,-118
1643374735429,11084.8174685,-116
1643374735448,11084.8174713,-116
1643374735448,11084.8174741,-111
1643374735448,11084.8174769,-99
1643374735448,11084.8174799,-101
1643374735448,11084.8174829,-108
1643374735448,11084.8174859,-101
1643374735448,11084.8174889,-99
1643374735448,11084.8174919,-127
1643374735448,11084.8174949,-208
1643374735448,11084.8174982,-267
1643374735466,11084.8175035,-21
1643374735466,11084.8175065,691
1643374735466,11084.8175096,1378
1643374735466,11084.8175126,1113
1643374735466,11084.8175157,-66
1643374735466,11084.8175187,-781
1643374735466,11084.8175217,-523
1643374735466,11084.8175248,-227
1643374735466,11084.8175286,-234
1643374735466,11084.8175317,-191
1643374735485,11084.8175347,-149
1643374735485,11084.8175403,-182
1643374735485,11084.8175451,-175
1643374735485,11084.817548,-142
1643374735485,11084.8175511,-149
1643374735485,11084.817554,-153
1643374735485,11084.8175568,-139
1643374735485,11084.8175597,-139
1643374735485,11084.8175626,-137
1643374735485,11084.8175658,-125
1643374735506,11084.8175686,-118
1643374735506,11084.8175714,-116
1643374735506,11084.8175743,-104
1643374735506,11084.8175772,-82
1643374735506,11084.8175801,-66
1643374735506,11084.8175829,-52
1643374735506,11084.8175857,-35
1643374735506,11084.8175886,-4
1643374735506,11084.8175914,28
1643374735506,11084.8175942,59
1643374735544,11084.817597,99
1643374735544,11084.8175998,132
1643374735544,11084.8176181,144
1643374735544,11084.8176342,153
1643374735544,11084.8176405,170
1643374735544,11084.8176439,172
1643374735544,11084.8176488,139
1643374735544,11084.817652,80
1643374735544,11084.8176569,7
1643374735544,11084.8176602,-75
1643374735563,11085.3700617,-137
1643374735563,11085.3700729,-179
1643374735563,11085.3700765,-220
1643374735563,11085.3700795,-246
1643374735563,11085.3700824,-260
1643374735563,11085.3700854,-277
1643374735563,11085.3700882,-291
1643374735563,11085.3700911,-279
1643374735563,11085.370094,-258
1643374735563,11085.3700968,-253
1643374735582,11085.3700997,-248
1643374735582,11085.3701025,-236
1643374735582,11085.3701053,-234
1643374735582,11085.3701081,-229
1643374735931,11085.370111,-206
1643374735931,11085.3701138,-189
1643374735931,11085.3701167,-191
1643374735931,11085.3701195,-184
1643374735931,11085.3701224,-170
1643374735931,11085.3701252,-172
1643374735931,11085.3701279,-172
1643374735931,11085.3701307,-163
1643374735931,11085.3701335,-163
1643374735931,11085.3701363,-191
1643374735953,11085.3701391,-210
1643374735953,11085.3701419,-194
1643374735953,11085.3701448,-172
1643374735953,11085.3701476,-175
1643374735953,11085.3701503,-191
1643374735953,11085.3701531,-194
1643374735953,11085.3701558,-189
1643374735953,11085.3701587,-187
1643374735953,11085.3701615,-187
1643374735953,11085.3701643,-201
1643374735974,11085.3701671,-213
1643374735974,11085.3701699,-201
1643374735974,11085.3701802,-203
1643374735974,11085.3702016,-217
1643374735974,11085.3702077,-217
1643374735974,11085.3702111,-215
1643374735974,11085.3702142,-213
1643374735974,11085.3702172,-206
1643374735974,11085.3702201,-198
1643374735974,11085.3702231,-175
1643374735997,11085.370226,-158
1643374735997,11085.370229,-168
1643374735997,11085.3702318,-179
1643374735997,11085.3702347,-175
1643374735997,11085.3702376,-165
1643374735997,11085.3702406,-163
1643374735997,11085.3702435,-168
1643374735997,11085.3702464,-177
1643374735997,11085.3702493,-172
1643374735997,11085.3702523,-149
1643374736027,11085.3702551,-146
1643374736027,11085.3702613,-163
1643374736027,11085.3702645,-146
1643374736027,11085.3702714,-132
1643374736027,11085.3702765,-142
1643374736027,11085.3702797,-137
1643374736027,11085.370285,-125
1643374736027,11085.3702882,-118
1643374736027,11085.370293,-165
1643374736027,11085.3702963,-274
1643374736046,11085.370301,-241
1643374736046,11085.3703043,210
1643374736046,11085.3703092,1006
1643374736046,11085.3703124,1404
1643374736046,11085.3703172,672
1643374736046,11085.3703204,-494
1643374736046,11085.3703251,-788
1643374736046,11085.3703284,-404
1643374736046,11085.3703333,-248
1643374736046,11085.8700265,-277
1643374736068,11085.8700403,-227
1643374736068,11085.8700442,-198
1643374736068,11085.8700494,-196
1643374736068,11085.8700528,-179
1643374736068,11085.8700579,-179
1643374736068,11085.8700625,-165
1643374736068,11085.8700656,-130
1643374736068,11085.8700687,-118
1643374736068,11085.8700719,-144
1643374736068,11085.870075,-161
1643374736087,11085.8700805,-156
1643374736087,11085.8700837,-137
1643374736087,11085.8700889,-108
1643374736087,11085.8700921,-92
1643374736606,11085.8700972,-92
1643374736606,11085.8701003,-61
1643374736606,11085.8701032,-23
1643374736606,11085.8701062,-16
1643374736606,11085.8701091,-9
1643374736606,11085.8701121,49
1643374736606,11085.8701151,116
1643374736606,11085.870118,111
1643374736606,11085.8701209,85
1643374736606,11085.8701238,134
1643374736631,11085.8701267,194
1643374736631,11085.8701297,198
1643374736631,11085.8701326,168
1643374736631,11085.8701355,127
1643374736631,11085.8701385,71
1643374736631,11085.8701416,-14
1643374736631,11085.8701448,-101
1643374736631,11085.8701479,-158
1643374736631,11085.8701511,-196
1643374736631,11085.8701563,-220
1643374736668,11085.8701595,-234
1643374736668,11085.8701627,-265
1643374736668,11085.870168,-281
1643374736668,11085.8701712,-260
1643374736668,11085.8701743,-239
1643374736668,11085.8701774,-253
1643374736668,11085.8701805,-272
1643374736668,11085.8701837,-251
1643374736668,11085.8701868,-201
1643374736668,11085.8701921,-168
1643374736687,11085.8701953,-184
1643374736687,11085.8702004,-236
1643374736687,11085.8702036,-227
1643374736687,11085.8702088,-175
1643374736687,11085.8702128,-165
1643374736687,11085.8702178,-179
1643374736687,11085.8702209,-165
1643374736687,11085.8702241,-144
1643374736687,11085.8702272,-151
1643374736687,11085.8702303,-158
1643374736706,11085.8702334,-151
1643374736706,11085.8702365,-144
1643374736706,11085.8702396,-130
1643374736706,11085.8702427,-142
1643374736706,11085.8702459,-179
1643374736706,11085.870249,-175
1643374736706,11085.8702521,-161
1643374736706,11085.8702553,-165
1643374736706,11085.8702584,-158
1643374736706,11085.8702615,-137
1643374736730,11085.8702646,-130
1643374736730,11085.8702681,-151
1643374736730,11085.8702732,-172
1643374736730,11085.8702848,-168
1643374736730,11085.8703554,-175
1643374736730,11085.8703624,-187
1643374736730,11085.8703658,-184
1643374736730,11085.8703689,-184
1643374736730,11086.5663453,-177
1643374736730,11086.5663592,-165
1643374736756,11086.566363,-165
1643374736756,11086.5663661,-187
1643374736756,11086.5663691,-201
1643374736756,11086.5663723,-203
1643374736756,11086.5663754,-215
1643374736756,11086.5663784,-208
1643374736756,11086.5663816,-189
1643374736756,11086.5663846,-182
1643374736756,11086.5663877,-170
1643374736756,11086.5663908,-146
1643374736781,11086.5663939,-144
1643374736781,11086.5663969,-153
1643374736781,11086.5664,-153
1643374736781,11086.5664031,-153
1643374737163,11086.5664062,-149
1643374737163,11086.5664092,-149
1643374737163,11086.5664121,-151
1643374737163,11086.566415,-153
1643374737163,11086.5664181,-165
1643374737163,11086.5664211,-222
1643374737163,11086.566424,-277
1643374737163,11086.566427,-71
1643374737163,11086.5664301,577
1643374737163,11086.5664331,1248
1643374737195,11086.566436,1032
1643374737195,11086.5664391,-87
1643374737195,11086.566442,-817
1643374737195,11086.5664449,-596
1643374737195,11086.5664479,-286
1643374737195,11086.5664512,-265
1643374737195,11086.5664543,-227
1643374737195,11086.5664575,-168
1643374737195,11086.5664605,-182
1643374737195,11086.5664637,-182
1643374737215,11086.5664669,-149
1643374737215,11086.56647,-132
1643374737215,11086.5664731,-137
1643374737215,11086.5664763,-130
1643374737215,11086.5664819,-118
1643374737215,11086.5664852,-108
1643374737215,11086.5664903,-85
1643374737215,11086.5664935,-63
1643374737215,11086.5664967,-73
1643374737215,11086.5664998,-80
1643374737233,11086.5665029,-71
1643374737233,11086.566507,-66
1643374737233,11086.5665119,-54
1643374737233,11086.5665151,-11
1643374737233,11086.5665201,33
1643374737233,11086.5665233,49
1643374737233,11086.5665264,75
1643374737233,11086.5665295,113
1643374737233,11086.5665326,134
1643374737233,11086.5665357,146
1643374737255,11086.566539,165
1643374737255,11086.566544,189
1643374737255,11086.5665472,198
1643374737255,11086.5665522,168
1643374737255,11086.5665554,97
1643374737255,11086.566561,21
1643374737255,11086.5665689,-63
1643374737255,11086.5665722,-151
1643374737255,11086.5665752,-208
1643374737255,11086.5665783,-229
1643374737280,11086.5665832,-255
1643374737280,11086.5665864,-277
1643374737280,11086.5665894,-286
1643374737280,11086.5665924,-300
1643374737280,11086.5665954,-319
1643374737280,11086.5665984,-324
1643374737280,11086.5666013,-288
1643374737280,11087.1177452,-253
1643374737280,11087.1177572,-265
1643374737280,11087.1177607,-279
1643374737304,11087.1177639,-260
1643374737304,11087.1177672,-260
1643374737304,11087.1177701,-277
1643374737304,11087.1177729,-277
1643374737304,11087.1177758,-293
1643374737304,11087.1177786,-307
1643374737304,11087.1177815,-274
1643374737304,11087.1177843,-255
1643374737304,11087.1177871,-272
1643374737304,11087.1177899,-260
1643374737332,11087.1177927,-236
1643374737332,11087.1177956,-248
1643374737332,11087.1177984,-255
1643374737332,11087.1178012,-262
1643374737708,11087.117804,-269
1643374737708,11087.1178068,-241
1643374737708,11087.1178096,-206
1643374737708,11087.1178124,-220
1643374737708,11087.1178152,-255
1643374737708,11087.1178181,-258
1643374737708,11087.1178209,-236
1643374737708,11087.1178237,-236
1643374737708,11087.118036,-232
1643374737708,11087.1180511,-241
1643374737731,11087.1180556,-281
1643374737731,11087.1180589,-269
1643374737731,11087.1180622,-203
1643374737731,11087.118065,-215
1643374737731,11087.1180679,-272
1643374737731,11087.1180707,-198
1643374737731,11087.1180736,-92
1643374737731,11087.1180768,-137
1643374737731,11087.1180796,-229
1643374737731,11087.1180825,-253
1643374737755,11087.1180853,-262
1643374737755,11087.1180881,-291
1643374737755,11087.118091,-307
1643374737755,11087.1180938,-310
1643374737755,11087.1180966,-317
1643374737755,11087.1180995,-314
1643374737755,11087.1181023,-284
1643374737755,11087.1181052,-239
1643374737755,11087.1181081,-210
1643374737755,11087.1181109,-206
1643374737782,11087.1181137,-220
1643374737782,11087.1181165,-236
1643374737782,11087.1181194,-203
1643374737782,11087.1181222,-179
1643374737782,11087.118125,-241
1643374737782,11087.1181278,-329
1643374737782,11087.1181306,-319
1643374737782,11087.1181335,59
1643374737782,11087.1181364,864
1643374737782,11087.1181393,1373
1643374737816,11087.1181422,729
1643374737816,11087.1181451,-518
1643374737816,11087.1181479,-978
1643374737816,11087.1181507,-660
1643374737816,11087.1181535,-502
1643374737816,11087.1181564,-513
1643374737816,11087.1181591,-416
1643374737816,11087.118162,-355
1643374737816,11087.1181649,-348
1643374737816,11087.1181678,-291
1643374737845,11087.1181706,-232
1643374737845,11087.1181735,-201
1643374737845,11087.1181764,-163
1643374737845,11087.1181792,-123
1643374737845,11087.1181821,-99
1643374737845,11087.1181849,-85
1643374737845,11087.6691592,-59
1643374737845,11087.6692447,-28
1643374737845,11087.6692537,-18
1643374737845,11087.6692571,-33
1643374737864,11087.6692601,-33
1643374737864,11087.6692632,2
1643374737864,11087.6692662,23
1643374737864,11087.6692692,35
1643374737864,11087.6692721,78
1643374737864,11087.6692751,120
1643374737864,11087.669278,149
1643374737864,11087.6692809,184
1643374737864,11087.6692838,224
1643374737864,11087.6692868,241
1643374737881,11087.6692897,236
1643374737881,11087.6692925,255
1643374737881,11087.6692955,267
1643374737881,11087.6692984,217
1643374738305,11087.6693014,137
1643374738305,11087.6693045,47
1643374738305,11087.6693075,-54
1643374738305,11087.6693104,-134
1643374738305,11087.6693134,-182
1643374738305,11087.6693163,-220
1643374738305,11087.6693192,-260
1643374738305,11087.6693222,-284
1643374738305,11087.6693252,-272
1643374738305,11087.6696722,-265
1643374738332,11087.6696889,-277
1643374738332,11087.6696943,-265
1643374738332,11087.6696985,-243
1643374738332,11087.6697023,-243
1643374738332,11087.6697088,-241
1643374738332,11087.6697129,-217
1643374738332,11087.6697188,-203
1643374738332,11087.6697228,-213
1643374738332,11087.6697286,-220
1643374738332,11087.6697339,-206
1643374738364,11087.6697382,-189
1643374738364,11087.6697421,-194
1643374738364,11087.6697476,-189
1643374738364,11087.6697514,-187
1643374738364,11087.669757,-203
1643374738364,11087.6697608,-201
1643374738364,11087.6697664,-175
1643374738364,11087.6698797,-172
1643374738364,11087.6698898,-182
1643374738364,11087.6698958,-184
1643374738382,11087.6699022,-196
1643374738382,11087.6699061,-198
1643374738382,11087.6699117,-165
1643374738382,11087.6699156,-149
1643374738382,11087.6699211,-158
1643374738382,11087.6699248,-151
1643374738382,11087.6699302,-116
1643374738382,11087.669934,-125
1643374738382,11087.6699394,-213
1643374738382,11087.6699433,-243
1643374738404,11087.669949,-182
1643374738404,11087.6699546,-149
1643374738404,11087.6699589,-142
1643374738404,11087.6699627,-106
1643374738404,11087.6699671,-75
1643374738404,11087.6699708,-101
1643374738404,11087.6699763,-134
1643374738404,11087.6699801,-99
1643374738404,11087.6699856,-63
1643374738404,11087.6699902,-85
1643374738430,11087.6699961,-99
1643374738430,11087.6700003,-87
1643374738430,11087.6700063,-82
1643374738430,11087.6700106,-82
1643374738430,11087.670016,-80
1643374738430,11088.2659692,-82
1643374738430,11088.265982,-73
1643374738430,11088.2659856,-71
1643374738430,11088.2659909,-89
1643374738430,11088.265994,-85
1643374738454,11088.2659971,-78
1643374738454,11088.2660001,-149
1643374738454,11088.2660037,-224
1643374738454,11088.2660096,-47
1643374738454,11088.2660128,570
1643374738454,11088.2660176,1330
1643374738454,11088.2660207,1349
1643374738454,11088.2660257,296
1643374738454,11088.2660292,-651
1643374738454,11088.266034,-603
1643374738479,11088.2660371,-267
1643374738479,11088.2660403,-175
1643374738479,11088.2660453,-120
1643374738479,11088.2660485,-125
1643374738792,11088.2660532,-189
1643374738792,11088.2660563,-172
1643374738792,11088.2660592,-120
1643374738792,11088.266062,-106
1643374738792,11088.2660649,-101
1643374738792,11088.2660677,-111
1643374738792,11088.2660706,-127
1643374738792,11088.2660734,-120
1643374738792,11088.2661136,-89
1643374738792,11088.2661183,-71
1643374738814,11088.2661212,-80
1643374738814,11088.2661241,-78
1643374738814,11088.266127,-49
1643374738814,11088.2661299,-33
1643374738814,11088.2661328,-47
1643374738814,11088.2661356,-52
1643374738814,11088.2661385,-2
1643374738814,11088.2661415,56
1643374738814,11088.2661443,66
1643374738814,11088.2661473,73
1643374738836,11088.2661501,118
1643374738836,11088.266153,158
1643374738836,11088.2661559,191
1643374738836,11088.2661588,208
1643374738836,11088.2661617,177
1643374738836,11088.2661649,151
1643374738836,11088.2661678,142
1643374738836,11088.2661707,85
1643374738836,11088.2661736,-7
1643374738836,11088.2661764,-71
1643374738871,11088.2661793,-123
1643374738871,11088.2661825,-182
1643374738871,11088.2661854,-220
1643374738871,11088.2661883,-229
1643374738871,11088.2661911,-251
1643374738871,11088.266194,-267
1643374738871,11088.2661968,-251
1643374738871,11088.2661996,-232
1643374738871,11088.2662025,-224
1643374738871,11088.2662053,-222
1643374738891,11088.2662082,-215
1643374738891,11088.2662111,-201
1643374738891,11088.2662143,-187
1643374738891,11088.2662174,-187
1643374738891,11088.2662202,-189
1643374738891,11088.2662231,-175
1643374738891,11088.2662261,-165
1643374738891,11088.266229,-161
1643374738891,11088.2662319,-163
1643374738891,11088.2662347,-177
1643374738910,11088.2662376,-175
1643374738910,11088.2662405,-158
1643374738910,11088.2662433,-149
1643374738910,11088.2662462,-146
1643374738910,11088.7250478,-137
1643374738910,11088.7250609,-134
1643374738910,11088.7250645,-139
1643374738910,11088.7250675,-149
1643374738910,11088.7250704,-151
1643374738910,11088.7250733,-142
1643374738931,11088.7250762,-127
1643374738931,11088.725079,-113
1643374738931,11088.7250819,-116
1643374738931,11088.7250847,-127
1643374738931,11088.7250875,-139
1643374738931,11088.7250903,-156
1643374738931,11088.7250931,-161
1643374738931,11088.7250959,-144
1643374738931,11088.7250987,-125
1643374738931,11088.7251015,-127
1643374738956,11088.7251044,-142
1643374738956,11088.7251072,-132
1643374738956,11088.72511,-111
1643374738956,11088.7251129,-120
1643374739429,11088.7251157,-134
1643374739429,11088.7251186,-130
1643374739429,11088.7251215,-127
1643374739429,11088.7251243,-137
1643374739429,11088.725127,-149
1643374739429,11088.7251299,-139
1643374739429,11088.7251327,-116
1643374739429,11088.7251355,-120
1643374739429,11088.7251383,-144
1643374739429,11088.7251411,-137
1643374739455,11088.7251439,-125
1643374739455,11088.7251468,-134
1643374739455,11088.7251496,-132
1643374739455,11088.7251524,-104
1643374739455,11088.7251552,-120
1643374739455,11088.725158,-222
1643374739455,11088.7251609,-274
1643374739455,11088.7251638,4
1643374739455,11088.7251667,724
1643374739455,11088.7251695,1390
1643374739481,11088.7251723,1108
1643374739481,11088.7251751,-73
1643374739481,11088.7251779,-788
1643374739481,11088.7251807,-511
1643374739481,11088.7251836,-196
1643374739481,11088.7251864,-203
1643374739481,11088.7251892,-187
1643374739481,11088.725192,-149
1643374739481,11088.7251949,-165
1643374739481,11088.7251977,-153
1643374739513,11088.7252005,-134
1643374739513,11088.7252034,-149
1643374739513,11088.7252062,-139
1643374739513,11088.7252096,-94
1643374739513,11088.7252125,-80
1643374739513,11088.7252152,-101
1643374739513,11088.725218,-101
1643374739513,11088.7252208,-66
1643374739513,11088.7252236,-42
1643374739513,11088.7252265,-42
1643374739533,11088.7252293,-26
1643374739533,11088.7252321,-2
1643374739533,11088.725235,14
1643374739533,11088.7252378,37
1643374739533,11088.7252407,37
1643374739533,11088.7252435,47
1643374739533,11088.7252463,89
1643374739533,11088.725249,113
1643374739533,11088.7252518,125
1643374739533,11088.7252547,163
1643374739554,11088.7252575,191
1643374739554,11088.7252603,201
1643374739554,11088.7252632,208
1643374739554,11089.3669592,191
1643374739554,11089.366972,134
1643374739554,11089.366977,63
1643374739554,11089.3669821,-9
1643374739554,11089.3669851,-85
1643374739554,11089.3669883,-156
1643374739554,11089.3669913,-198
1643374739580,11089.3669943,-224
1643374739580,11089.3669973,-246
1643374739580,11089.3670004,-269
1643374739580,11089.3670057,-288
1643374739580,11089.3670104,-279
1643374739580,11089.3670154,-262
1643374739580,11089.3670183,-258
1643374739580,11089.3670213,-251
1643374739580,11089.3670243,-246
1643374739580,11089.3670273,-253
1643374739605,11089.3670304,-255
1643374739605,11089.3670334,-251
1643374739605,11089.3670364,-253
1643374739605,11089.3670393,-253
1643374739932,11089.3670424,-248
1643374739932,11089.3670453,-241
1643374739932,11089.3670481,-215
1643374739932,11089.3670509,-194
1643374739932,11089.3670537,-220
1643374739932,11089.3670565,-243
1643374739932,11089.3670594,-232
1643374739932,11089.3670622,-224
1643374739932,11089.3670651,-217
1643374739932,11089.3670679,-220
1643374739956,11089.3670708,-267
1643374739956,11089.3670737,-267
1643374739956,11089.3670768,-208
1643374739956,11089.3670796,-208
1643374739956,11089.3670824,-253
1643374739956,11089.3670853,-262
1643374739956,11089.3670881,-258
1643374739956,11089.3670925,-241
1643374739956,11089.3670956,-224
1643374739956,11089.3670986,-232
1643374739986,11089.3671016,-227
1643374739986,11089.3671047,-179
1643374739986,11089.3671078,-142
1643374739986,11089.3671361,-161
1643374739986,11089.3671456,-191
1643374739986,11089.3671506,-187
1643374739986,11089.3671607,-161
1643374739986,11089.3671774,-177
1643374739986,11089.3671857,-217
1643374739986,11089.3671912,-208
1643374740019,11089.3671944,-179
1643374740019,11089.3671994,-177
1643374740019,11089.3672026,-168
1643374740019,11089.3672075,-137
1643374740019,11089.3672107,-132
1643374740019,11089.3672154,-153
1643374740019,11089.3672184,-144
1643374740019,11089.3672215,-116
1643374740019,11089.3672246,-153
1643374740019,11089.3672276,-272
1643374740039,11089.3672306,-258
1643374740039,11089.3672337,208
1643374740039,11089.3672387,1077
1643374740039,11089.3672418,1584
1643374740039,11089.3672449,902
1643374740039,11089.3672479,-359
1643374740039,11089.3672509,-760
1643374740039,11089.3672538,-359
1643374740039,11089.3672569,-172
1643374740039,11089.3672599,-236
1643374740061,11089.367263,-196
1643374740061,11089.3672661,-134
1643374740061,11089.8695812,-132
1643374740061,11089.8695951,-137
1643374740061,11089.8696,-151
1643374740061,11089.8696056,-149
1643374740061,11089.8696088,-111
1643374740061,11089.8696119,-94
1643374740061,11089.8696176,-101
1643374740061,11089.8696207,-82
1643374740081,11089.8696238,-52
1643374740081,11089.869627,-61
1643374740081,11089.8696301,-97
1643374740081,11089.869633,-85
1643374740081,11089.869636,-35
1643374740081,11089.8696391,-9
1643374740081,11089.8696421,-9
1643374740081,11089.8696452,7
1643374740081,11089.8696491,66
1643374740081,11089.8696522,120
1643374740105,11089.8696553,130
1643374740105,11089.8696583,125
1643374740105,11089.8696632,134
1643374740105,11089.8696664,156
1643374740537,11089.8696712,175
1643374740537,11089.8696742,170
1643374740537,11089.8696772,151
1643374740537,11089.86968,146
1643374740537,11089.8696829,144
1643374740537,11089.8696857,189
1643374740537,11089.8696887,305
1643374740537,11089.8696916,350
1643374740537,11089.8696944,274
1643374740537,11089.8696973,215
1643374740571,11089.8697001,234
1643374740571,11089.8697452,248
1643374740571,11089.8697506,206
1643374740571,11089.8697541,170
1643374740571,11089.8697593,208
1643374740571,11089.8697625,274
1643374740571,11089.8697655,300
1643374740571,11089.8697684,253
1643374740571,11089.8697713,168
1643374740571,11089.8697741,66
1643374740591,11089.8697771,-78
1643374740591,11089.86978,-175
1643374740591,11089.8697829,-165
1643374740591,11089.8697858,-158
1643374740591,11089.8697887,-182
1643374740591,11089.8697915,-177
1643374740591,11089.8697944,-177
1643374740591,11089.8697972,-194
1643374740591,11089.8698002,-182
1643374740591,11089.8698031,-165
1643374740610,11089.8698059,-177
1643374740610,11089.8698088,-184
1643374740610,11089.8698121,-177
1643374740610,11089.8698153,-191
1643374740610,11089.8698183,-210
1643374740610,11089.8698362,-220
1643374740610,11089.8698455,-227
1643374740610,11089.8698716,-236
1643374740610,11089.8698829,-229
1643374740610,11089.8698887,-217
1643374740629,11089.8698922,-217
1643374740629,11089.8699093,-220
1643374740629,11089.8699164,-232
1643374740629,11089.8699197,-246
1643374740629,11089.8699238,-246
1643374740629,11089.8699269,-234
1643374740629,11089.8699299,-227
1643374740629,11089.86994,-224
1643374740629,11089.8699432,-229
1643374740629,11089.8699461,-236
1643374740655,11089.8699491,-232
1643374740655,11090.470558,-213
1643374740655,11090.4705714,-203
1643374740655,11090.470575,-215
1643374740655,11090.4705779,-222
1643374740655,11090.470581,-210
1643374740655,11090.4705838,-210
1643374740655,11090.4705867,-210
1643374740655,11090.4705896,-198
1643374740655,11090.4705924,-196
1643374740689,11090.4705953,-224
1643374740689,11090.4705983,-310
1643374740689,11090.4706012,-326
1643374740689,11090.4706042,40
1643374740689,11090.4706072,840
1643374740689,11090.47061,1420
1643374740689,11090.4706129,921
1643374740689,11090.4706158,-307
1643374740689,11090.4706188,-835
1643374740689,11090.4706216,-468
1643374740709,11090.4706245,-213
1643374740709,11090.4706274,-248
1643374740709,11090.4706303,-210
1643374740709,11090.4706332,-172
1643374741019,11090.4706361,-208
1643374741019,11090.4706389,-201
1643374741019,11090.4706418,-168
1643374741019,11090.4706446,-172
1643374741019,11090.4706475,-165
1643374741019,11090.4706503,-146
1643374741019,11090.4706532,-156
1643374741019,11090.4707028,-163
1643374741019,11090.4707081,-149
1643374741019,11090.4707112,-137
1643374741037,11090.470714,-118
1643374741037,11090.4707168,-87
1643374741037,11090.4707196,-71
1643374741037,11090.4707225,-63
1643374741037,11090.4707253,-35
1643374741037,11090.4707282,-11
1643374741037,11090.4707311,2
1643374741037,11090.4707339,37
1643374741037,11090.4707367,80
1643374741037,11090.4707396,106
1643374741074,11090.4707424,127
1643374741074,11090.4707452,137
1643374741074,11090.470748,144
1643374741074,11090.4707508,161
1643374741074,11090.4707536,182
1643374741074,11090.4707564,175
1643374741074,11090.4707593,94
1643374741074,11090.4707621,-9
1643374741074,11090.4707649,-73
1643374741074,11090.4707678,-127
1643374741092,11090.4707707,-172
1643374741092,11090.4707735,-201
1643374741092,11090.4707764,-217
1643374741092,11090.4707792,-236
1643374741092,11090.470782,-255
1643374741092,11090.4707848,-255
1643374741092,11090.4707876,-251
1643374741092,11090.4707904,-241
1643374741092,11090.4707933,-217
1643374741092,11090.4707962,-224
1643374741111,11090.470799,-239
1643374741111,11090.4708018,-217
1643374741111,11090.4708046,-213
1643374741111,11090.4708075,-227
1643374741111,11090.4708103,-224
1643374741111,11090.4708131,-217
1643374741111,11090.4708158,-208
1643374741111,11090.4708187,-213
1643374741111,11090.4708216,-234
1643374741111,11090.4708244,-232
1643374741134,11090.9705222,-220
1643374741134,11090.9705337,-236
1643374741134,11090.9705373,-260
1643374741134,11090.9705404,-253
1643374741134,11090.9705434,-246
1643374741134,11090.9705462,-272
1643374741134,11090.970549,-291
1643374741134,11090.9705519,-286
1643374741134,11090.9705547,-288
1643374741134,11090.9705576,-296
1643374741168,11090.9705604,-293
1643374741168,11090.9705633,-298
1643374741168,11090.9705696,-296
1643374741168,11090.9705855,-293
1643374741168,11090.9705895,-310
1643374741168,11090.9705925,-310
1643374741168,11090.9705954,-274
1643374741168,11090.9705982,-272
1643374741168,11090.9706011,-305
1643374741168,11090.970604,-312
1643374741190,11090.9706068,-286
1643374741190,11090.9706096,-260
1643374741190,11090.9706124,-246
1643374741190,11090.9706166,-239
1643374741705,11090.9706196,-224
1643374741705,11090.9706226,-215
1643374741705,11090.9706254,-222
1643374741705,11090.9706283,-232
1643374741705,11090.9706311,-236
1643374741705,11090.970634,-246
1643374741705,11090.9706368,-246
1643374741705,11090.9706397,-227
1643374741705,11090.9706426,-208
1643374741705,11090.9706454,-227
1643374741728,11090.9706482,-319
1643374741728,11090.9706511,-345
1643374741728,11090.970654,26
1643374741728,11090.9706568,852
1643374741728,11090.9706597,1477
1643374741728,11090.9706625,987
1643374741728,11090.9706654,-286
1643374741728,11090.9706682,-869
1643374741728,11090.9706711,-520
1643374741728,11090.9706739,-251
1643374741754,11090.9706768,-272
1643374741754,11090.9706797,-232
1643374741754,11090.9706825,-184
1643374741754,11090.9706854,-203
1643374741754,11090.9706882,-203
1643374741754,11090.970691,-191
1643374741754,11090.9706939,-196
1643374741754,11090.9706967,-203
1643374741754,11090.9706996,-194
1643374741754,11090.9707025,-170
1643374741778,11090.9707054,-156
1643374741778,11090.9707083,-137
1643374741778,11090.9707113,-89
1643374741778,11090.9707171,-56
1643374741778,11090.9707202,-52
1643374741778,11090.9707232,-33
1643374741778,11090.9707261,0
1643374741778,11090.9707289,21
1643374741778,11090.970732,28
1643374741778,11090.9707586,56
1643374741804,11090.9707653,87
1643374741804,11090.9707688,97
1643374741804,11090.970772,125
1643374741804,11090.9707749,172
1643374741804,11090.9707778,196
1643374741804,11090.9707807,191
1643374741804,11090.9707836,201
1643374741804,11090.9707866,243
1643374741804,11090.9707895,234
1643374741804,11091.666053,127
1643374741837,11091.6660671,40
1643374741837,11091.6660708,11
1643374741837,11091.6660763,-40
1643374741837,11091.6660794,-120
1643374741837,11091.6660825,-161
1643374741837,11091.6660854,-179
1643374741837,11091.6660885,-217
1643374741837,11091.6660915,-248
1643374741837,11091.6660944,-277
1643374741837,11091.6660974,-298
1643374741858,11091.6661004,-277
1643374741858,11091.6661034,-253
1643374741858,11091.6661063,-258
1643374741858,11091.6661094,-248
1643374741858,11091.6661151,-241
1643374741858,11091.6661184,-265
1643374741858,11091.6661234,-277
1643374741858,11091.6661267,-272
1643374741858,11091.6661321,-274
1643374741858,11091.6661351,-267
1643374741879,11091.6661383,-232
1643374741879,11091.6661433,-220
1643374741879,11091.6661464,-243
1643374741879,11091.6661494,-239
1643374742162,11091.6661525,-194
1643374742162,11091.6661554,-168
1643374742162,11091.6661583,-172
1643374742162,11091.6661611,-177
1643374742162,11091.666164,-175
1643374742162,11091.6661668,-177
1643374742162,11091.6661696,-194
1643374742162,11091.6661724,-206
1643374742162,11091.6661752,-194
1643374742162,11091.6661782,-175
1643374742182,11091.6661809,-170
1643374742182,11091.6661837,-172
1643374742182,11091.6661865,-170
1643374742182,11091.6661893,-175
1643374742182,11091.6661921,-165
1643374742182,11091.6661949,-161
1643374742182,11091.6661978,-182
1643374742182,11091.6662006,-206
1643374742182,11091.6662036,-213
1643374742182,11091.6662067,-210
1643374742210,11091.6662098,-196
1643374742210,11091.6662128,-191
1643374742210,11091.6662157,-189
1643374742210,11091.6662188,-175
1643374742210,11091.666222,-168
1643374742210,11091.6662263,-189
1643374742210,11091.6662293,-222
1643374742210,11091.6662433,-217
1643374742210,11091.6662699,-189
1643374742210,11091.6662965,-189
1643374742232,11091.6663035,-196
1643374742232,11091.666307,-241
1643374742232,11091.6663103,-329
1643374742232,11091.6663157,-210
1643374742232,11091.6663189,402
1643374742232,11091.6663239,1283
1643374742232,11091.666327,1508
1643374742232,11091.6663312,509
1643374742232,11091.6663343,-660
1643374742232,11091.6663374,-753
1643374742257,11091.6663404,-324
1643374742257,11091.6663434,-241
1643374742257,11091.6663464,-274
1643374742257,11091.6663495,-203
1643374742257,11091.6663525,-196
1643374742257,11091.6663555,-215
1643374742257,11091.6663588,-187
1643374742257,11091.6663619,-170
1643374742257,11092.1163959,-172
1643374742257,11092.1164081,-165
1643374742292,11092.1164117,-149
1643374742292,11092.1164148,-139
1643374742292,11092.1164179,-142
1643374742292,11092.1164208,-134
1643374742292,11092.1164237,-113
1643374742292,11092.1164265,-78
1643374742292,11092.1164293,-40
1643374742292,11092.1164348,-18
1643374742292,11092.1164378,-4
1643374742292,11092.1164409,26
1643374742315,11092.1164438,56
1643374742315,11092.1164466,78
1643374742315,11092.1164494,87
1643374742315,11092.1164522,108
1643374742315,11092.1164693,153
1643374742315,11092.1165263,184
1643374742315,11092.1165336,194
1643374742315,11092.1165498,203
1643374742315,11092.1165694,203
1643374742315,11092.1165899,182
1643374742335,11092.1166035,146
1643374742335,11092.1166076,89
1643374742335,11092.116623,16
1643374742335,11092.1166297,-63
1643374742680,11092.1170721,-137
1643374742680,11092.1170905,-184
1643374742680,11092.1170954,-203
1643374742680,11092.117099,-220
1643374742680,11092.117102,-241
1643374742680,11092.1171049,-232
1643374742680,11092.1171078,-217
1643374742680,11092.1171106,-217
1643374742680,11092.117224,-208
1643374742680,11092.1172317,-196
1643374742704,11092.117235,-206
1643374742704,11092.1172383,-208
1643374742704,11092.1172411,-187
1643374742704,11092.117244,-179
1643374742704,11092.1172468,-201
1643374742704,11092.1172497,-206
1643374742704,11092.1172525,-172
1643374742704,11092.1172554,-149
1643374742704,11092.1172582,-156
1643374742704,11092.1172612,-165
1643374742729,11092.117264,-172
1643374742729,11092.117305,-170
1643374742729,11092.1173082,-175
1643374742729,11092.1173111,-196
1643374742729,11092.117314,-194
1643374742729,11092.1173169,-153
1643374742729,11092.1173197,-118
1643374742729,11092.1173226,-132
1643374742729,11092.1173254,-168
1643374742729,11092.1173283,-184
1643374742755,11092.1173311,-161
1643374742755,11092.117334,-142
1643374742755,11092.1173371,-165
1643374742755,11092.1173406,-187
1643374742755,11092.1173435,-146
1643374742755,11092.1173465,-82
1643374742755,11092.1173495,-63
1643374742755,11092.1173524,-99
1643374742755,11092.1173553,-153
1643374742755,11092.1173582,-163
1643374742791,11092.1173611,-161
1643374742791,11092.1173639,-177
1643374742791,11092.1173668,-137
1643374742791,11092.1173697,-85
1643374742791,11092.1173726,-120
1643374742791,11092.1173754,-187
1643374742791,11092.1173783,-156
1643374742791,11092.6196375,-52
1643374742791,11092.6196509,-37
1643374742791,11092.6196548,-101
1643374742810,11092.6196603,-116
1643374742810,11092.6196637,-127
1643374742810,11092.6196687,-222
1643374742810,11092.6196724,-350
1643374742810,11092.6196755,-286
1643374742810,11092.6196785,246
1643374742810,11092.6196815,1098
1643374742810,11092.6196845,1454
1643374742810,11092.6196875,622
1643374742810,11092.6196905,-587
1643374742829,11092.6196935,-835
1643374742829,11092.6196966,-419
1643374742829,11092.6196997,-279
1643374742829,11092.6197028,-326
1643374742829,11092.6197057,-267
1643374742829,11092.6197088,-227
1643374742829,11092.6197118,-260
1643374742829,11092.6197149,-262
1643374742829,11092.6197212,-196
1643374742829,11092.6197244,-156
1643374742856,11092.6197274,-161
1643374742856,11092.6197305,-158
1643374742856,11092.6197334,-168
1643374742856,11092.6197364,-179
1643374743289,11092.6197394,-144
1643374743289,11092.6197423,-89
1643374743289,11092.6197452,-97
1643374743289,11092.6197479,-134
1643374743289,11092.6197508,-106
1643374743289,11092.6197535,-56
1643374743289,11092.6197563,-18
1643374743289,11092.6197592,73
1643374743289,11092.6197621,139
1643374743289,11092.619765,113
1643374743310,11092.6197678,123
1643374743310,11092.6197707,168
1643374743310,11092.6197736,142
1643374743310,11092.6197765,104
1643374743310,11092.6197794,144
1643374743310,11092.6197822,220
1643374743310,11092.6197857,215
1643374743310,11092.6197888,132
1643374743310,11092.6197918,44
1643374743310,11092.6197947,-23
1643374743328,11092.6197979,-82
1643374743328,11092.6198009,-170
1643374743328,11092.619804,-248
1643374743328,11092.6198072,-258
1643374743328,11092.6198126,-260
1643374743328,11092.6198157,-269
1643374743328,11092.6198187,-262
1643374743328,11092.6198217,-248
1643374743328,11092.6198247,-182
1643374743328,11092.6198276,-123
1643374743354,11092.6198306,-177
1643374743354,11092.6198336,-232
1643374743354,11092.6198366,-189
1643374743354,11092.6198397,-184
1643374743354,11092.6198427,-255
1643374743354,11092.6198457,-277
1643374743354,11092.6198488,-236
1643374743354,11092.6198532,-222
1643374743354,11092.6198562,-220
1643374743354,11092.6198592,-198
1643374743379,11092.6198624,-201
1643374743379,11092.6198666,-246
1643374743379,11092.6198695,-267
1643374743379,11092.6198726,-236
1643374743379,11092.6198757,-213
1643374743379,11092.6198788,-236
1643374743379,11093.2196873,-248
1643374743379,11093.2197,-220
1643374743379,11093.2197038,-198
1643374743379,11093.2197092,-198
1643374743406,11093.2197148,-222
1643374743406,11093.2197199,-262
1643374743406,11093.2197245,-267
1643374743406,11093.2197295,-227
1643374743406,11093.2197327,-222
1643374743406,11093.2197379,-341
1643374743406,11093.219741,-476
1643374743406,11093.2197461,-499
1643374743406,11093.2197494,-523
1643374743406,11093.2197543,-639
1643374743429,11093.2197576,-748
1643374743429,11093.2197619,-807
1643374743429,11093.219765,-890
1643374743429,11093.2197678,-1006
1643374743429,11093.2197708,-1122
1643374743429,11093.2197736,-1198
1643374743429,11093.2197766,-1212
1643374743429,11093.2197798,-1188
1643374743429,11093.2197828,-1169
1643374743429,11093.2197862,-1172
1643374743465,11093.219789,-1200
1643374743465,11093.2197918,-1285
1643374743465,11093.2198015,-1437
1643374743465,11093.2198086,-1652
1643374743904,11093.2198119,-1922
1643374743904,11093.2198149,-2185
1643374743904,11093.2198178,-2344
1643374743904,11093.2198206,-2171
1643374743904,11093.2198236,-1484
1643374743904,11093.2198265,-712
1643374743904,11093.2198295,-805
1643374743904,11093.220114,-1868
1643374743904,11093.2201257,-2609
1643374743904,11093.2201296,-2313
1643374743931,11093.2201327,-1844
1643374743931,11093.2201358,-1690
1643374743931,11093.2204487,-1480
1643374743931,11093.2204661,-1169
1643374743931,11093.2204711,-961
1643374743931,11093.2204744,-817
1643374743931,11093.2204773,-646
1643374743931,11093.2204806,-499
1643374743931,11093.2204835,-376
1643374743931,11093.2204864,-198
1643374743964,11093.2204892,4
1643374743964,11093.2204921,92
1643374743964,11093.2204949,111
1643374743964,11093.2204977,196
1643374743964,11093.2205005,281
1643374743964,11093.2205033,322
1643374743964,11093.2205062,367
1643374743964,11093.2205091,400
1643374743964,11093.2205119,419
1643374743964,11093.2205147,473
1643374743986,11093.2205174,549
1643374743986,11093.2205203,608
1643374743986,11093.220523,651
1643374743986,11093.2205258,693
1643374743986,11093.2205287,731
1643374743986,11093.2205314,764
1643374743986,11093.2205342,779
1643374743986,11093.2205371,769
1643374743986,11093.22054,767
1643374743986,11093.2205429,781
1643374744007,11093.2205457,724
1643374744007,11093.2205493,615
1643374744007,11093.2205521,542
1643374744007,11093.2205557,480
1643374744007,11093.2205586,412
1643374744007,11093.8645772,376
1643374744007,11093.8645903,341
1643374744007,11093.8645954,305
1643374744007,11093.8646006,284
1643374744007,11093.8646037,248
1643374744029,11093.8646279,224
1643374744029,11093.864642,251
1643374744029,11093.8646526,281
1643374744029,11093.8646558,265
1643374744029,11093.8646588,208
1643374744029,11093.8646618,163
1643374744029,11093.8646647,194
1643374744029,11093.8646676,246
1643374744029,11093.8646707,227
1643374744029,11093.864675,208
1643374744053,11093.8646779,234
1643374744053,11093.8646809,241
1643374744053,11093.8646838,222
1643374744053,11093.8646869,203
1643374744053,11093.8646904,196
1643374744053,11093.8646935,215
1643374744053,11093.8646989,246
1643374744053,11093.8647019,234
1643374744053,11093.8647047,208
1643374744053,11093.8647075,206
1643374744079,11093.8647103,206
1643374744079,11093.8647131,203
1643374744079,11093.8647158,198
1643374744079,11093.8647186,187
1643374744361,11093.8647214,182
1643374744361,11093.8647243,191
1643374744361,11093.864728,194
1643374744361,11093.8647308,191
1643374744361,11093.8647337,203
1643374744361,11093.8647364,213
1643374744361,11093.8647392,191
1643374744361,11093.864742,168
1643374744361,11093.8647448,172
1643374744361,11093.8647476,201
1643374744379,11093.8647503,217
1643374744379,11093.8647531,220
1643374744379,11093.8647559,203
1643374744379,11093.8647586,158
1643374744379,11093.8647614,146
1643374744379,11093.8647643,187
1643374744379,11093.8647671,196
1643374744379,11093.8647698,175
1643374744379,11093.8647725,170
1643374744379,11093.8647752,163
1643374744404,11093.864778,156
1643374744404,11093.8647807,144
1643374744404,11093.8647835,92
1643374744404,11093.8647863,-4
1643374744404,11093.864789,-4
1643374744404,11093.8647919,404
1643374744404,11093.8647947,1248
1643374744404,11093.8647975,1790
1643374744404,11093.8648002,1162
1643374744404,11093.864803,-125
1643374744430,11093.8648059,-594
1643374744430,11093.8648086,-172
1643374744430,11093.8648115,52
1643374744430,11093.8648143,-28
1643374744430,11093.864817,-2
1643374744430,11093.8648198,56
1643374744430,11093.8648226,54
1643374744430,11093.8648253,73
1643374744430,11093.8648281,73
1643374744430,11093.8648308,18
1643374744463,11093.8648335,26
1643374744463,11093.8648399,104
1643374744463,11093.8648428,116
1643374744463,11093.8648456,68
1643374744463,11094.32051,59
1643374744463,11094.3205215,82
1643374744463,11094.320525,125
1643374744463,11094.320528,151
1643374744463,11094.3205322,156
1643374744463,11094.3205354,177
1643374744484,11094.3205401,227
1643374744484,11094.3205431,253
1643374744484,11094.3205461,227
1643374744484,11094.3205489,220
1643374744484,11094.3205518,269
1643374744484,11094.3205547,307
1643374744484,11094.3205576,305
1643374744484,11094.3205604,303
1643374744484,11094.3205632,314
1643374744484,11094.3205666,305
1643374744505,11094.3205694,269
1643374744505,11094.3205722,227
1643374744505,11094.320575,151
1643374744505,11094.3205779,66
1643374744505,11094.3205807,4
1643374744505,11094.3205837,-68
1643374744505,11094.3205866,-118
1643374744505,11094.3205894,-118
1643374744505,11094.3205923,-137
1643374744505,11094.3205951,-170
1643374744529,11094.320598,-184
1643374744529,11094.3206008,-168
1643374744529,11094.3206036,-132
1643374744529,11094.3206065,-113
1643374745012,11094.3206094,-123
1643374745012,11094.3206122,-137
1643374745012,11094.320615,-130
1643374745012,11094.3206179,-106
1643374745012,11094.3206207,-106
1643374745012,11094.3206235,-127
1643374745012,11094.3206264,-127
1643374745012,11094.3206292,-113
1643374745012,11094.320632,-120
1643374745012,11094.3206349,-142
1643374745038,11094.3206377,-132
1643374745038,11094.3206406,-113
1643374745038,11094.3206434,-132
1643374745038,11094.3206462,-161
1643374745038,11094.3206491,-139
1643374745038,11094.320652,-111
1643374745038,11094.3206548,-118
1643374745038,11094.3206576,-125
1643374745038,11094.3206604,-125
1643374745038,11094.3206633,-118
1643374745056,11094.3206662,-82
1643374745056,11094.320669,-54
1643374745056,11094.3206719,-80
1643374745056,11094.3206748,-104
1643374745056,11094.3206776,-75
1643374745056,11094.3206804,-40
1643374745056,11094.3206833,-42
1643374745056,11094.3206862,-66
1643374745056,11094.320689,-78
1643374745056,11094.3206918,-78
1643374745099,11094.3206947,-75
1643374745099,11094.3206976,-49
1643374745099,11094.3207004,-21
1643374745099,11094.3207032,-33
1643374745099,11094.320706,-47
1643374745099,11094.3207089,-40
1643374745099,11094.3207117,-44
1643374745099,11094.3207145,-54
1643374745099,11094.3207173,-33
1643374745099,11094.3207202,-14
1643374745122,11094.3207229,-42
1643374745122,11094.3207258,-78
1643374745122,11094.3207286,-123
1643374745122,11094.9733359,-215
1643374745122,11094.973348,-149
1643374745122,11094.9733517,431
1643374745122,11094.9733548,1378
1643374745122,11094.9733577,1766
1643374745122,11094.9733606,852
1643374745122,11094.9733635,-449
1643374745150,11094.9733839,-693
1643374745150,11094.9733883,-241
1643374745150,11094.973421,-104
1643374745150,11094.9734412,-144
1643374745150,11094.9734896,-85
1643374745150,11094.9735018,-87
1643374745150,11094.9735092,-123
1643374745150,11094.9735123,-87
1643374745150,11094.9735155,-66
1643374745150,11094.9735186,-63
1643374745170,11094.9735217,-49
1643374745170,11094.9735249,-82
1643374745170,11094.9735295,-108
1643374745170,11094.9735324,-56
1643374745170,11094.9735353,-4
1643374745170,11094.9735382,-21
1643374745170,11094.9735411,-47
1643374745170,11094.9735439,-2
1643374745170,11094.9735467,75
1643374745170,11094.9735495,108
1643374745188,11094.973554,113
1643374745188,11094.9735866,130
1643374745188,11094.9735905,151
1643374745188,11094.9735935,175
1643374745528,11094.9735964,191
1643374745528,11094.9735993,196
1643374745528,11094.973602,215
1643374745528,11094.9736049,232
1643374745528,11094.9736077,224
1643374745528,11094.9736106,206
1643374745528,11094.9736134,196
1643374745528,11094.9736162,161
1643374745528,11094.9736191,73
1643374745528,11094.973622,-18
1643374745555,11094.9736252,-87
1643374745555,11094.973628,-149
1643374745555,11094.9736308,-187
1643374745555,11094.9736336,-220
1643374745555,11094.9736365,-251
1643374745555,11094.9736393,-246
1643374745555,11094.9736421,-239
1643374745555,11094.973645,-243
1643374745555,11094.9736478,-215
1643374745555,11094.9736507,-170
1643374745580,11094.9736535,-163
1643374745580,11094.9736563,-187
1643374745580,11094.9736591,-213
1643374745580,11094.9736619,-239
1643374745580,11094.9736648,-232
1643374745580,11094.9736676,-187
1643374745580,11094.9736704,-196
1643374745580,11094.9736732,-255
1643374745580,11094.9736759,-253
1643374745580,11094.9736788,-217
1643374745604,11094.9736816,-215
1643374745604,11094.9736843,-203
1643374745604,11094.9736872,-177
1643374745604,11094.97369,-175
1643374745604,11094.9736928,-172
1643374745604,11094.9736956,-158
1643374745604,11094.9736984,-161
1643374745604,11094.9737012,-175
1643374745604,11094.973704,-172
1643374745604,11094.9737068,-144
1643374745639,11094.97371,-108
1643374745639,11094.9737127,-85
1643374745639,11095.4701781,-92
1643374745639,11095.4701929,-116
1643374745639,11095.4701968,-106
1643374745639,11095.4702009,-78
1643374745639,11095.4702039,-85
1643374745639,11095.4702071,-116
1643374745639,11095.4702103,-108
1643374745639,11095.4702141,-80
1643374745660,11095.4702172,-87
1643374745660,11095.4702202,-101
1643374745660,11095.4702232,-80
1643374745660,11095.4702274,-54
1643374745660,11095.4702304,-49
1643374745660,11095.4702334,-68
1643374745660,11095.4702365,-87
1643374745660,11095.4702394,-87
1643374745660,11095.4702425,-87
1643374745660,11095.4702455,-92
1643374745680,11095.4702485,-99
1643374745680,11095.4702515,-89
1643374745680,11095.4702544,-127
1643374745680,11095.4702575,-241
1643374745680,11095.4702605,-120
1643374745680,11095.4702636,532
1643374745680,11095.4702667,1380
1643374745680,11095.4702696,1463
1643374745680,11095.4702726,378
1643374745680,11095.4702757,-682
1643374745704,11095.4702787,-637
1643374745704,11095.4702817,-208
1643374745704,11095.4702847,-165
1643374745704,11095.4702879,-189
1643374746066,11095.4702918,-120
1643374746066,11095.4702947,-127
1643374746066,11095.4702976,-153
1643374746066,11095.4703004,-125
1643374746066,11095.4703034,-106
1643374746066,11095.4703064,-108
1643374746066,11095.4703092,-97
1643374746066,11095.470312,-80
1643374746066,11095.4703148,-73
1643374746066,11095.4703176,-54
1643374746084,11095.4703205,-35
1643374746084,11095.4703232,-44
1643374746084,11095.4703261,-42
1643374746084,11095.470329,11
1643374746084,11095.4703318,61
1643374746084,11095.4703347,80
1643374746084,11095.4703374,99
1643374746084,11095.4703404,120
1643374746084,11095.4703434,134
1643374746084,11095.4703464,165
1643374746104,11095.4703494,210
1643374746104,11095.4703533,232
1643374746104,11095.4703564,224
1643374746104,11095.4703595,246
1643374746104,11095.4703625,298
1643374746104,11095.4703665,293
1643374746104,11095.4703695,232
1643374746104,11095.4703727,187
1643374746104,11095.4703757,134
1643374746104,11095.4703788,73
1643374746143,11095.4704191,7
1643374746143,11095.4704301,-75
1643374746143,11095.470435,-130
1643374746143,11095.4704596,-146
1643374746143,11095.470465,-156
1643374746143,11095.4704684,-182
1643374746143,11095.4704713,-201
1643374746143,11095.4704742,-165
1643374746143,11095.4704775,-137
1643374746143,11095.4704804,-168
1643374746164,11095.4704833,-175
1643374746164,11096.0210807,-137
1643374746164,11096.0210918,-127
1643374746164,11096.0210953,-172
1643374746164,11096.0210984,-215
1643374746164,11096.0211014,-206
1643374746164,11096.0212155,-156
1643374746164,11096.0212273,-144
1643374746164,11096.0212311,-189
1643374746164,11096.0212343,-203
1643374746182,11096.0212372,-177
1643374746182,11096.0212414,-172
1643374746182,11096.0212443,-189
1643374746182,11096.0212472,-213
1643374746182,11096.0212714,-234
1643374746182,11096.0212812,-191
1643374746182,11096.0212845,-142
1643374746182,11096.0212874,-210
1643374746182,11096.0217402,-291
1643374746182,11096.0217577,-248
1643374746203,11096.0217646,-203
1643374746203,11096.021768,-232
1643374746203,11096.0218403,-255
1643374746203,11096.0218519,-224
1643374746203,11096.0218558,-163
1643374746203,11096.0221863,-134
1643374746203,11096.0221983,-144
1643374746203,11096.0222019,-137
1643374746203,11096.0222062,-106
1643374746203,11096.0222122,-108
1643374746229,11096.0222154,-132
1643374746229,11096.0222204,-134
1643374746229,11096.0222236,-134
1643374746229,11096.0222286,-123
1643374746860,11096.0222318,-94
1643374746860,11096.0222349,-101
1643374746860,11096.0222378,-125
1643374746860,11096.0222407,-116
1643374746860,11096.0222436,-99
1643374746860,11096.0222465,-92
1643374746860,11096.0222494,-85
1643374746860,11096.0222523,-82
1643374746860,11096.0222553,-78
1643374746860,11096.0222582,-75
1643374746879,11096.0222611,-87
1643374746879,11096.0223098,-144
1643374746879,11096.0223233,-236
1643374746879,11096.0223311,-118
1643374746879,11096.0223434,483
1643374746879,11096.0223496,1297
1643374746879,11096.0223552,1432
1643374746879,11096.0223606,447
1643374746879,11096.0223639,-596
1643374746879,11096.0223813,-622
1643374746906,11096.022398,-217
1643374746906,11096.022422,-137
1643374746906,11096.0224285,-161
1643374746906,11096.022432,-108
1643374746906,11096.0224371,-104
1643374746906,11096.0224402,-118
1643374746906,11096.0224434,-99
1643374746906,11096.022459,-94
1643374746906,11096.022469,-97
1643374746906,11096.0224742,-73
1643374746939,11096.0224775,-56
1643374746939,11096.022481,-54
1643374746939,11096.0224839,-47
1643374746939,11096.0225142,-40
1643374746939,11096.0225194,-30
1643374746939,11096.0225226,-7
1643374746939,11096.0225396,23
1643374746939,11096.022543,35
1643374746939,11096.0225462,59
1643374746939,11096.0225492,125
1643374746960,11096.8193928,172
1643374746960,11096.819405,177
1643374746960,11096.8194086,191
1643374746960,11096.8194116,224
1643374746960,11096.8194145,251
1643374746960,11096.8194175,265
1643374746960,11096.8194204,279
1643374746960,11096.8194233,288
1643374746960,11096.8194262,267
1643374746960,11096.8194291,232
1643374746991,11096.8194319,189
1643374746991,11096.8194347,118
1643374746991,11096.8194377,40
1643374746991,11096.8194405,-18
1643374746991,11096.8194437,-66
1643374746991,11096.8194466,-108
1643374746991,11096.8194494,-142
1643374746991,11096.8194523,-158
1643374746991,11096.8194552,-165
1643374746991,11096.819458,-163
1643374747017,11096.8194609,-158
1643374747017,11096.8194637,-163
1643374747017,11096.8194665,-161
1643374747017,11096.8194694,-151
1643374747017,11096.8194722,-146
1643374747017,11096.8194751,-156
1643374747017,11096.819478,-175
1643374747017,11096.8194809,-187
1643374747017,11096.8194838,-177
1643374747017,11096.8194866,-158
1643374747036,11096.8194894,-153
1643374747036,11096.8194923,-158
1643374747036,11096.8194951,-161
1643374747036,11096.8194978,-156
1643374747229,11096.8195007,-149
1643374747229,11096.8195035,-158
1643374747229,11096.8195068,-177
1643374747229,11096.819772,-165
1643374747229,11096.8197829,-146
1643374747229,11096.819787,-144
1643374747229,11096.8197903,-151
1643374747229,11096.8197934,-156
1643374747229,11096.8197965,-139
1643374747229,11096.8197994,-125
1643374747266,11096.8198022,-127
1643374747266,11096.8198051,-132
1643374747266,11096.819808,-149
1643374747266,11096.8198109,-168
1643374747266,11096.8198138,-156
1643374747266,11096.8198857,-142
1643374747266,11096.8198906,-142
1643374747266,11096.8198936,-134
1643374747266,11096.8198966,-134
1643374747266,11096.8198998,-137
1643374747284,11096.8199027,-120
1643374747284,11096.8199055,-116
1643374747284,11096.8199082,-130
1643374747284,11096.819911,-139
1643374747284,11096.8199138,-144
1643374747284,11096.8199166,-149
1643374747284,11096.8199195,-156
1643374747284,11096.8199223,-163
1643374747284,11096.8199251,-172
1643374747284,11096.819928,-172
1643374747305,11096.8199309,-161
1643374747305,11096.8199337,-165
1643374747305,11096.8199366,-170
1643374747305,11096.8199397,-149
1643374747305,11096.8199427,-134
1643374747305,11096.8199455,-149
1643374747305,11096.8199483,-165
1643374747305,11096.8199511,-217
1643374747305,11096.819954,-293
1643374747305,11097.1697329,-104
1643374747328,11097.1697474,606
1643374747328,11097.1697513,1475
1643374747328,11097.1697566,1482
1643374747328,11097.1697598,298
1643374747328,11097.1697627,-750
1643374747328,11097.1697657,-660
1643374747328,11097.1697688,-260
1643374747328,11097.169774,-239
1643374747328,11097.169777,-248
1643374747328,11097.1697801,-177
1643374747354,11097.169783,-175
1643374747354,11097.1697861,-170
1643374747354,11097.169789,-142
1643374747354,11097.1697919,-132
1643374747354,11097.1697949,-127
1643374747354,11097.1697978,-118
1643374747354,11097.1698009,-113
1643374747354,11097.169804,-113
1643374747354,11097.169807,-111
1643374747354,11097.1698101,-116
1643374747378,11097.169813,-101
1643374747378,11097.169816,-54
1643374747378,11097.169819,-23
1643374747378,11097.169822,-9
1643374747378,11097.169825,18
1643374747378,11097.1698294,40
1643374747378,11097.1698325,52
1643374747378,11097.1698355,78
1643374747378,11097.1698385,120
1643374747378,11097.1698415,149
1643374747406,11097.1698445,170
1643374747406,11097.1698474,198
1643374747406,11097.1698504,213
1643374747406,11097.1698534,217
1643374747855,11097.1698563,222
1643374747855,11097.1698592,201
1643374747855,11097.169862,149
1643374747855,11097.1698647,85
1643374747855,11097.1698675,-4
1643374747855,11097.1698704,-104
1643374747855,11097.1698733,-168
1643374747855,11097.1698761,-201
1643374747855,11097.1698788,-243
1643374747855,11097.1698817,-281
1643374747879,11097.1698846,-291
1643374747879,11097.1698874,-279
1643374747879,11097.1698902,-272
1643374747879,11097.169893,-260
1643374747879,11097.1698958,-243
1643374747879,11097.1698992,-236
1643374747879,11097.1699022,-220
1643374747879,11097.169905,-203
1643374747879,11097.1699078,-217
1643374747879,11097.1699108,-236
1643374747909,11097.1699139,-224
1643374747909,11097.1699168,-194
1643374747909,11097.1699198,-196
1643374747909,11097.1699227,-208
1643374747909,11097.1699257,-165
1643374747909,11097.1699288,-127
1643374747909,11097.1699326,-139
1643374747909,11097.1699356,-125
1643374747909,11097.1699386,-104
1643374747909,11097.1699415,-132
1643374747942,11097.1699445,-151
1643374747942,11097.1699475,-139
1643374747942,11097.1699505,-149
1643374747942,11097.1699535,-165
1643374747942,11097.1699565,-158
1643374747942,11097.1699596,-161
1643374747942,11097.1699626,-177
1643374747942,11097.1699657,-175
1643374747942,11097.8143376,-177
1643374747942,11097.8143513,-203
1643374747962,11097.8143548,-208
1643374747962,11097.814358,-179
1643374747962,11097.8143611,-179
1643374747962,11097.8143642,-224
1643374747962,11097.8143672,-229
1643374747962,11097.8143702,-172
1643374747962,11097.8143732,-168
1643374747962,11097.8143761,-224
1643374747962,11097.8143791,-234
1643374747962,11097.8143822,-224
1643374747984,11097.8143852,-258
1643374747984,11097.8143883,-272
1643374747984,11097.8143912,-243
1643374747984,11097.8143942,-241
1643374747984,11097.8143971,-248
1643374747984,11097.8144001,-241
1643374747984,11097.8144031,-236
1643374747984,11097.814406,-229
1643374747984,11097.814409,-227
1643374747984,11097.814412,-215
1643374748005,11097.8144152,-196
1643374748005,11097.8144181,-201
1643374748005,11097.8144211,-265
1643374748005,11097.814424,-374
1643374748005,11097.8144271,-310
1643374748005,11097.8144316,243
1643374748005,11097.8144347,1167
1643374748005,11097.8144377,1560
1643374748005,11097.8144407,665
1643374748005,11097.8144437,-615
1643374748029,11097.8144467,-847
1643374748029,11097.8144499,-407
1643374748029,11097.8144529,-284
1643374748029,11097.8144559,-331
1643374748331,11097.8144589,-284
1643374748331,11097.8144619,-284
1643374748331,11097.8144647,-307
1643374748331,11097.8144675,-277
1643374748331,11097.8144704,-248
1643374748331,11097.8144732,-248
1643374748331,11097.8144761,-241
1643374748331,11097.8144789,-224
1643374748331,11097.8144817,-217
1643374748331,11097.8144847,-213
1643374748355,11097.8144875,-179
1643374748355,11097.8144904,-151
1643374748355,11097.8144932,-149
1643374748355,11097.8144961,-127
1643374748355,11097.8145019,-78
1643374748355,11097.814505,-56
1643374748355,11097.8145078,-42
1643374748355,11097.814511,-9
1643374748355,11097.814514,14
1643374748355,11097.8145171,37
