unixTime,lslTime,ECG
1643470751884,24937.1115489,-97
1643470751884,24937.1115517,21
1643470751884,24937.1115545,549
1643470751884,24937.1115572,1274
1643470751884,24937.1115598,1335
1643470751884,24937.1115625,409
1643470751884,24937.1115652,-376
1643470751884,24937.1115678,-291
1643470751884,24937.1115705,-111
1643470751884,24937.1115732,-196
1643470751916,24937.1115759,-161
1643470751916,24937.1115786,-82
1643470751916,24937.1115812,-116
1643470751916,24937.1115839,-118
1643470751916,24937.1115867,-78
1643470751916,24937.1115893,-75
1643470751916,24937.111592,-73
1643470751916,24937.1115947,-47
1643470751916,24937.1115974,-35
1643470751916,24937.1116001,-33
1643470751949,24937.1116028,-16
1643470751949,24937.1116056,4
1643470751949,24937.1116083,16
1643470751949,24937.111611,30
1643470751949,24937.1116138,49
1643470751949,24937.1116176,68
1643470751949,24937.1116208,89
1643470751949,24937.111625,113
1643470751949,24937.1116278,130
1643470751949,24937.1116305,139
1643470751982,24937.1116332,142
1643470751982,24937.1116547,137
1643470751982,24937.1116579,120
1643470751982,24937.1116607,101
1643470751982,24937.1116634,80
1643470751982,24937.1116661,59
1643470751982,24937.1116691,37
1643470751982,24937.1116718,16
1643470751982,24937.1116757,-4
1643470751982,24937.1116785,-18
1643470752016,24937.1116814,-30
1643470752016,24937.1116841,-40
1643470752016,24937.1116868,-47
1643470752016,24937.1116895,-49
1643470752016,24937.1116921,-44
1643470752016,24937.1116948,-33
1643470752016,24937.1116977,-26
1643470752016,24937.1117006,-28
1643470752016,24937.1117314,-28
1643470752016,24937.1117417,-16
1643470752050,24937.1117449,-4
1643470752050,24937.1117478,4
1643470752050,24937.1117507,2
1643470752050,24937.1117535,0
1643470752050,24937.1117565,2
1643470752050,24937.1117593,0
1643470752050,24937.111762,-2
1643470752050,24937.1117649,0
1643470752050,24937.1117677,0
1643470752050,24937.75934,2
1643470752088,24937.7593516,2
1643470752088,24937.7593555,-2
1643470752088,24937.7593588,2
1643470752088,24937.7593618,4
1643470752088,24937.7593649,0
1643470752088,24937.7593679,4
1643470752088,24937.7593707,0
1643470752088,24937.7593736,-16
1643470752088,24937.7593769,-23
1643470752088,24937.7593797,-14
1643470752115,24937.7593833,-9
1643470752115,24937.7593861,-7
1643470752115,24937.7593889,-2
1643470752115,24937.7593918,-9
1643470752316,24937.7593946,-14
1643470752316,24937.7593979,9
1643470752316,24937.759401,30
1643470752316,24937.7594038,26
1643470752316,24937.7594066,21
1643470752316,24937.7594095,16
1643470752316,24937.7594123,-7
1643470752316,24937.7594151,-28
1643470752316,24937.759418,-33
1643470752316,24937.7594208,-28
1643470752352,24937.7594236,-26
1643470752352,24937.7594269,-28
1643470752352,24937.7594301,-26
1643470752352,24937.7594329,-21
1643470752352,24937.7594358,-28
1643470752352,24937.7594386,-59
1643470752352,24937.7594416,-44
1643470752352,24937.7594444,215
1643470752352,24937.7594473,821
1643470752352,24937.7594505,1269
1643470752384,24937.7594534,817
1643470752384,24937.7594562,-108
1643470752384,24937.7594589,-367
1643470752384,24937.7594618,-134
1643470752384,24937.7594646,-123
1643470752384,24937.7594682,-149
1643470752384,24937.7594713,-66
1643470752384,24937.7594744,-63
1643470752384,24937.7594772,-92
1643470752384,24937.75948,-59
1643470752416,24937.7594828,-37
1643470752416,24937.7594856,-44
1643470752416,24937.7594885,-33
1643470752416,24937.7595124,-18
1643470752416,24937.7595173,-14
1643470752416,24937.7595213,2
1643470752416,24937.7595242,21
1643470752416,24937.7595274,33
1643470752416,24937.7595302,40
1643470752416,24937.7595342,52
1643470752451,24937.7595371,66
1643470752451,24937.7595399,82
1643470752451,24937.7595434,99
1643470752451,24937.7595462,120
1643470752451,24937.759549,132
1643470752451,24937.7595518,130
1643470752451,24937.7595546,120
1643470752451,24937.7595574,106
1643470752451,24937.7595602,89
1643470752451,24937.759563,78
1643470752482,24937.7595658,71
1643470752482,24937.7595686,56
1643470752482,24937.7595713,30
1643470752482,24937.7595741,14
1643470752482,24937.7595769,4
1643470752482,24937.7595797,-16
1643470752482,24937.7595825,-30
1643470752482,24937.7595853,-33
1643470752482,24938.2134402,-42
1643470752482,24938.2134537,-52
1643470752519,24938.2134573,-44
1643470752519,24938.2134611,-33
1643470752519,24938.2134641,-23
1643470752519,24938.2134672,-11
1643470752519,24938.2134703,-7
1643470752519,24938.2134732,-9
1643470752519,24938.2134764,-7
1643470752519,24938.2134796,4
1643470752519,24938.2134826,11
1643470752519,24938.2135129,11
1643470752551,24938.2135201,7
1643470752551,24938.2135237,-2
1643470752551,24938.2135268,-11
1643470752551,24938.2136686,-11
1643470752884,24938.213757,-11
1643470752884,24938.2138345,-9
1643470752884,24938.2138854,-7
1643470752884,24938.2138941,-11
1643470752884,24938.2138975,-26
1643470752884,24938.2139005,-28
1643470752884,24938.2139035,-21
1643470752884,24938.2139064,-16
1643470752884,24938.2139096,-18
1643470752884,24938.2139125,-30
1643470752917,24938.2139153,-42
1643470752917,24938.2139183,-47
1643470752917,24938.2139212,-35
1643470752917,24938.2139241,-23
1643470752917,24938.213927,-30
1643470752917,24938.2139298,-42
1643470752917,24938.2139327,-37
1643470752917,24938.2139356,-30
1643470752917,24938.2139385,-28
1643470752917,24938.2139414,-16
1643470752949,24938.2139444,9
1643470752949,24938.2139472,30
1643470752949,24938.21395,33
1643470752949,24938.2139529,18
1643470752949,24938.2139557,2
1643470752949,24938.2139585,-4
1643470752949,24938.2139614,-9
1643470752949,24938.2139643,-18
1643470752949,24938.2139671,-23
1643470752949,24938.21397,-18
1643470752982,24938.2139728,-16
1643470752982,24938.2139756,-23
1643470752982,24938.2139785,-23
1643470752982,24938.2139839,-18
1643470752982,24938.2139871,-40
1643470752982,24938.2140202,-56
1643470752982,24938.214031,78
1643470752982,24938.2140346,535
1643470752982,24938.2140377,1129
1643470752982,24938.2140405,1108
1643470753016,24938.2140434,260
1643470753016,24938.2140467,-355
1643470753016,24938.2140496,-241
1643470753016,24938.2140524,-132
1643470753016,24938.2140553,-194
1643470753016,24938.2140581,-111
1643470753016,24938.2140609,-49
1643470753016,24938.2140638,-94
1643470753016,24938.2140666,-85
1643470753016,24938.2140694,-47
1643470753049,24938.2140723,-44
1643470753049,24938.2140751,-42
1643470753049,24938.2140779,-28
1643470753049,24938.2140807,-23
1643470753049,24938.2140835,-11
1643470753049,24938.2140863,4
1643470753049,24938.2140891,16
1643470753049,24938.7643195,30
1643470753049,24938.7643335,44
1643470753049,24938.7643373,52
1643470753082,24938.7643407,75
1643470753082,24938.7643462,106
1643470753082,24938.7643495,113
1643470753082,24938.7643544,113
1643470753082,24938.7643577,125
1643470753082,24938.764363,123
1643470753082,24938.7643662,108
1643470753082,24938.7643706,97
1643470753082,24938.7643751,80
1643470753082,24938.7643802,44
1643470753117,24938.7643836,21
1643470753117,24938.7643885,21
1643470753117,24938.7643917,2
1643470753117,24938.7643961,-30
1643470753518,24938.7643994,-44
1643470753518,24938.7644025,-56
1643470753518,24938.7644054,-68
1643470753518,24938.7644084,-68
1643470753518,24938.7644113,-75
1643470753518,24938.7644143,-73
1643470753518,24938.7644172,-56
1643470753518,24938.7644202,-52
1643470753518,24938.7644231,-63
1643470753518,24938.764426,-49
1643470753549,24938.7644289,-28
1643470753549,24938.7644319,-28
1643470753549,24938.7644349,-37
1643470753549,24938.7644379,-35
1643470753549,24938.7644407,-33
1643470753549,24938.7644437,-44
1643470753549,24938.7644469,-42
1643470753549,24938.7644501,-33
1643470753549,24938.7644544,-28
1643470753549,24938.7644576,-28
1643470753584,24938.7644619,-30
1643470753584,24938.7644651,-37
1643470753584,24938.7644698,-33
1643470753584,24938.7644728,-26
1643470753584,24938.7644759,-30
1643470753584,24938.764481,-28
1643470753584,24938.764484,-16
1643470753584,24938.7644871,-16
1643470753584,24938.7644912,-23
1643470753584,24938.7644944,-30
1643470753604,24938.7644984,-33
1643470753604,24938.7645015,-37
1643470753604,24938.7645062,-35
1643470753604,24938.7645094,-23
1643470753604,24938.7645127,-16
1643470753604,24938.7645175,-16
1643470753604,24938.7645219,-16
1643470753604,24938.7645268,-14
1643470753604,24938.7645297,-18
1643470753604,24938.7645329,-21
1643470753629,24938.7645376,-7
1643470753629,24938.7645406,21
1643470753629,24938.7645437,44
1643470753629,24938.7645479,49
1643470753629,24938.764551,52
1643470753629,24938.764556,47
1643470753629,24938.7645608,28
1643470753629,24938.7645656,7
1643470753629,24938.7645706,4
1643470753629,24938.7645747,4
1643470753655,24938.7645778,-4
1643470753655,24938.7645819,0
1643470753655,24938.7645851,9
1643470753655,24938.76459,11
1643470753655,24938.764594,9
1643470753655,24938.7645994,-11
1643470753655,24939.4096672,-37
1643470753655,24939.4096789,120
1643470753655,24939.4096824,686
1643470753655,24939.4096855,1347
1643470753677,24939.4096885,1205
1643470753677,24939.4096915,224
1643470753677,24939.4096945,-345
1643470753677,24939.4096974,-153
1643470753677,24939.4097003,-42
1643470753677,24939.4097032,-118
1643470753677,24939.4097061,-75
1643470753677,24939.4097089,-66
1643470753677,24939.4097118,-118
1643470753677,24939.4097145,-97
1643470753697,24939.4097174,-61
1643470753697,24939.4097202,-63
1643470753697,24939.4097231,-63
1643470753697,24939.4097259,-49
1643470754009,24939.4097289,-40
1643470754009,24939.4097317,-26
1643470754009,24939.4097346,2
1643470754009,24939.4097375,21
1643470754009,24939.4097403,18
1643470754009,24939.4097432,23
1643470754009,24939.409746,44
1643470754009,24939.4097489,71
1643470754009,24939.4097517,92
1643470754009,24939.4097546,108
1643470754030,24939.4097574,116
1643470754030,24939.4097602,118
1643470754030,24939.4097635,125
1643470754030,24939.4097667,130
1643470754030,24939.4097695,116
1643470754030,24939.4097723,89
1643470754030,24939.4097751,71
1643470754030,24939.4097778,63
1643470754030,24939.4097807,49
1643470754030,24939.4097836,18
1643470754050,24939.4097864,-4
1643470754050,24939.4097892,-18
1643470754050,24939.4097921,-42
1643470754050,24939.409795,-66
1643470754050,24939.4097979,-71
1643470754050,24939.4098006,-61
1643470754050,24939.4098034,-61
1643470754050,24939.4098062,-66
1643470754050,24939.409809,-54
1643470754050,24939.4098118,-37
1643470754069,24939.4098146,-35
1643470754069,24939.4098174,-35
1643470754069,24939.4098203,-33
1643470754069,24939.4098238,-16
1643470754069,24939.4098266,0
1643470754069,24939.4098294,-7
1643470754069,24939.4098322,-9
1643470754069,24939.4098351,0
1643470754069,24939.4098379,-2
1643470754069,24939.4098408,0
1643470754090,24939.4098437,9
1643470754090,24939.4098465,11
1643470754090,24939.4098493,16
1643470754090,24939.4098524,18
1643470754090,24939.4098554,14
1643470754090,24939.4098582,9
1643470754090,24939.409861,14
1643470754090,24939.4098639,23
1643470754090,24939.4098667,26
1643470754090,24939.4098695,18
1643470754114,24939.4098724,16
1643470754114,24939.4098752,28
1643470754114,24939.4098781,35
1643470754114,24939.4098809,33
1643470754114,24939.4098838,33
1643470754114,24939.9073707,40
1643470754114,24939.9073815,44
1643470754114,24939.9073853,52
1643470754114,24939.9073884,63
1643470754114,24939.9073913,68
1643470754132,24939.9073942,82
1643470754132,24939.9073971,85
1643470754132,24939.9074001,66
1643470754132,24939.907403,40
1643470754132,24939.9074067,14
1643470754132,24939.9074101,-4
1643470754132,24939.907413,0
1643470754132,24939.9074159,16
1643470754132,24939.9074187,18
1643470754132,24939.9074217,16
1643470754152,24939.9074246,4
1643470754152,24939.9074276,-14
1643470754152,24939.9074305,-30
1643470754152,24939.9074334,-4
1643470754637,24939.9074363,239
1643470754637,24939.9074392,793
1643470754637,24939.9074421,1191
1643470754637,24939.9074451,745
1643470754637,24939.907448,-104
1643470754637,24939.9074511,-303
1643470754637,24939.907454,-97
1643470754637,24939.9074569,-118
1643470754637,24939.9074598,-134
1643470754637,24939.9074627,-42
1643470754670,24939.9074655,-47
1643470754670,24939.9074684,-80
1643470754670,24939.9074713,-59
1643470754670,24939.9074742,-52
1643470754670,24939.9074772,-52
1643470754670,24939.90748,-30
1643470754670,24939.9074828,-21
1643470754670,24939.9075394,-23
1643470754670,24939.9075436,-11
1643470754670,24939.9075466,7
1643470754705,24939.9075502,18
1643470754705,24939.9075533,23
1643470754705,24939.9075562,37
1643470754705,24939.9075591,52
1643470754705,24939.907562,61
1643470754705,24939.9075649,78
1643470754705,24939.9075678,97
1643470754705,24939.9075707,106
1643470754705,24939.9075739,106
1643470754705,24939.907577,108
1643470754741,24939.9075798,101
1643470754741,24939.9075831,87
1643470754741,24939.907586,75
1643470754741,24939.907589,61
1643470754741,24939.9075919,44
1643470754741,24939.9075951,26
1643470754741,24939.9075979,7
1643470754741,24939.9076009,-11
1643470754741,24939.9076038,-23
1643470754741,24939.9076068,-33
1643470754771,24939.9076097,-40
1643470754771,24939.9076126,-42
1643470754771,24939.9076156,-37
1643470754771,24939.9076186,-35
1643470754771,24939.9076215,-30
1643470754771,24939.9076245,-23
1643470754771,24939.9076274,-23
1643470754771,24939.9076304,-21
1643470754771,24939.9076332,-7
1643470754771,24939.9076538,-2
1643470754804,24939.9076841,-7
1643470754804,24939.9076905,-7
1643470754804,24939.9076991,-2
1643470754804,24939.9077035,2
1643470754804,24940.5075777,4
1643470754804,24940.5075918,7
1643470754804,24940.5075956,7
1643470754804,24940.5076016,4
1643470754804,24940.5076046,4
1643470754804,24940.5076085,7
1643470754838,24940.5076118,-2
1643470754838,24940.5076168,-26
1643470754838,24940.5076198,-49
1643470754838,24940.507623,-49
1643470754838,24940.5076279,-35
1643470754838,24940.5076309,-30
1643470754838,24940.5076338,-30
1643470754838,24940.5076369,-28
1643470754838,24940.5076401,-26
1643470754838,24940.5076451,-26
1643470754875,24940.5076481,-28
1643470754875,24940.5076512,-26
1643470754875,24940.5076543,-7
1643470754875,24940.5076574,16
1643470755237,24940.5076605,18
1643470755237,24940.5076643,14
1643470755237,24940.5076673,18
1643470755237,24940.5076702,23
1643470755237,24940.5076732,9
1643470755237,24940.5076762,-11
1643470755237,24940.5076792,-26
1643470755237,24940.5076821,-37
1643470755237,24940.5076851,-35
1643470755237,24940.507688,-26
1643470755270,24940.5076909,-26
1643470755270,24940.5076937,-28
1643470755270,24940.5076966,-23
1643470755270,24940.5076994,-40
1643470755270,24940.5077023,-66
1643470755270,24940.5077051,52
1643470755270,24940.5077081,490
1643470755270,24940.507711,1068
1643470755270,24940.5077139,1058
1643470755270,24940.5077168,260
1643470755306,24940.5077201,-319
1643470755306,24940.5077231,-215
1643470755306,24940.507726,-132
1643470755306,24940.5077289,-201
1643470755306,24940.5077322,-99
1643470755306,24940.5077356,-28
1643470755306,24940.5077387,-87
1643470755306,24940.5077431,-78
1643470755306,24940.5077462,-33
1643470755306,24940.5077496,-37
1643470755338,24940.5077539,-35
1643470755338,24940.5077571,-11
1643470755338,24940.5077612,-9
1643470755338,24940.5077645,-9
1643470755338,24940.5077684,4
1643470755338,24940.5077716,16
1643470755338,24940.5077756,26
1643470755338,24940.5077788,37
1643470755338,24940.507783,49
1643470755338,24940.5077862,56
1643470755360,24940.5077901,71
1643470755360,24940.5077933,89
1643470755360,24940.5077972,111
1643470755360,24940.5078003,123
1643470755360,24940.5078043,120
1643470755360,24940.5078076,106
1643470755360,24940.5078116,89
1643470755360,24940.5078147,82
1643470755360,24940.5078189,75
1643470755360,24940.5078221,56
1643470755383,24940.5078261,44
1643470755383,24940.5078292,40
1643470755383,24940.5078334,18
1643470755383,24941.1103658,-9
1643470755383,24941.1103793,-28
1643470755383,24941.1103829,-40
1643470755383,24941.1103889,-52
1643470755383,24941.1103922,-54
1643470755383,24941.1103971,-44
1643470755383,24941.1104004,-42
1643470755404,24941.1104035,-47
1643470755404,24941.1104084,-44
1643470755404,24941.1104129,-35
1643470755404,24941.1104176,-23
1643470755404,24941.1104221,-18
1643470755404,24941.1104273,-35
1643470755404,24941.1104302,-63
1643470755404,24941.1104333,-61
1643470755404,24941.1104377,-49
1643470755404,24941.1104412,-59
1643470755427,24941.1104443,-78
1643470755427,24941.1104484,-73
1643470755427,24941.1104515,-63
1643470755427,24941.1104546,-61
1643470755672,24941.1104585,-61
1643470755672,24941.1104615,-56
1643470755672,24941.110465,-52
1643470755672,24941.1104679,-49
1643470755672,24941.1104708,-54
1643470755672,24941.1104736,-59
1643470755672,24941.1104764,-52
1643470755672,24941.1104792,-35
1643470755672,24941.1104822,-35
1643470755672,24941.110485,-42
1643470755694,24941.1104879,-42
1643470755694,24941.1104907,-37
1643470755694,24941.1104936,-16
1643470755694,24941.1104964,16
1643470755694,24941.1104996,23
1643470755694,24941.1105027,14
1643470755694,24941.1105057,16
1643470755694,24941.110511,21
1643470755694,24941.1105141,9
1643470755694,24941.1105173,-14
1643470755717,24941.110522,-23
1643470755717,24941.1105265,-18
1643470755717,24941.110531,-16
1643470755717,24941.1105341,-21
1643470755717,24941.1105371,-18
1643470755717,24941.1105412,-4
1643470755717,24941.1105442,-4
1643470755717,24941.1105472,-37
1643470755717,24941.1105521,-47
1643470755717,24941.1105552,201
1643470755739,24941.1105583,838
1643470755739,24941.110563,1366
1643470755739,24941.1105658,959
1643470755739,24941.1105688,-42
1643470755739,24941.1105728,-386
1643470755739,24941.1105759,-156
1643470755739,24941.1105805,-156
1643470755739,24941.1105851,-191
1643470755739,24941.1105901,-68
1643470755739,24941.1105944,-52
1643470755761,24941.1105993,-94
1643470755761,24941.1106044,-61
1643470755761,24941.1106091,-37
1643470755761,24941.1106124,-47
1643470755761,24941.1106171,-35
1643470755761,24941.1106202,-14
1643470755761,24941.1106241,-7
1643470755761,24941.1106273,9
1643470755761,24941.1106319,30
1643470755761,24941.1106367,33
1643470755783,24941.1106414,35
1643470755783,24941.1106446,56
1643470755783,24941.5628824,78
1643470755783,24941.5628933,89
1643470755783,24941.5628969,106
1643470755783,24941.5628999,130
1643470755783,24941.562903,146
1643470755783,24941.562906,153
1643470755783,24941.5629089,156
1643470755783,24941.5629118,144
1643470755805,24941.5629147,120
1643470755805,24941.5629177,97
1643470755805,24941.5629206,75
1643470755805,24941.5629236,47
1643470755805,24941.5629266,7
1643470755805,24941.5629295,-18
1643470755805,24941.562934,-33
1643470755805,24941.5629386,-44
1643470755805,24941.5629429,-61
1643470755805,24941.562946,-92
1643470755828,24941.5629491,-108
1643470755828,24941.5629522,-97
1643470755828,24941.5629554,-87
1643470755828,24941.5629613,-82
1643470756228,24941.5629645,-66
1643470756228,24941.5629676,-63
1643470756228,24941.5629705,-94
1643470756228,24941.5629735,-111
1643470756228,24941.5629764,-87
1643470756228,24941.5629793,-68
1643470756228,24941.5629822,-66
1643470756228,24941.5629852,-59
1643470756228,24941.5629881,-52
1643470756228,24941.562991,-52
1643470756251,24941.5629939,-47
1643470756251,24941.5629968,-40
1643470756251,24941.5629997,-35
1643470756251,24941.5630026,-35
1643470756251,24941.5630064,-42
1643470756251,24941.5630093,-42
1643470756251,24941.5630122,-37
1643470756251,24941.5630152,-30
1643470756251,24941.5630183,-23
1643470756251,24941.5630235,-23
1643470756270,24941.5630275,-26
1643470756270,24941.5630306,-28
1643470756270,24941.5630337,-21
1643470756270,24941.5630368,0
1643470756270,24941.5630407,21
1643470756270,24941.5630438,30
1643470756270,24941.5630488,30
1643470756270,24941.5630518,21
1643470756270,24941.563057,9
1643470756270,24941.5630619,4
1643470756293,24941.5630649,-4
1643470756293,24941.563068,-9
1643470756293,24941.5630711,-2
1643470756293,24941.5630742,0
1643470756293,24941.5630795,0
1643470756293,24941.5630826,4
1643470756293,24941.563087,7
1643470756293,24941.5631221,-18
1643470756293,24941.5631293,-56
1643470756293,24941.5631325,59
1643470756316,24941.5631375,551
1643470756316,24941.5631427,1224
1643470756316,24941.5631468,1271
1643470756316,24941.5631499,400
1643470756316,24941.563155,-314
1643470756316,24941.563158,-224
1643470756316,24941.5631612,-66
1643470756316,24941.5631643,-144
1643470756316,24941.5631688,-99
1643470756316,24941.5631718,-28
1643470756337,24941.5631749,-61
1643470756337,24942.1149935,-71
1643470756337,24942.1150051,-42
1643470756337,24942.1150088,-42
1643470756337,24942.1150119,-44
1643470756337,24942.1150149,-26
1643470756337,24942.1150178,-14
1643470756337,24942.1150208,-2
1643470756337,24942.1150237,11
1643470756337,24942.1150267,21
1643470756364,24942.1150297,18
1643470756364,24942.1150326,11
1643470756364,24942.1150355,26
1643470756364,24942.1150394,54
1643470756364,24942.1150423,75
1643470756364,24942.1150452,85
1643470756364,24942.1150481,99
1643470756364,24942.115051,118
1643470756364,24942.1150539,127
1643470756364,24942.1150568,120
1643470756384,24942.1150597,106
1643470756384,24942.1150627,82
1643470756384,24942.1150656,61
1643470756384,24942.1150685,37
1643470756794,24942.1150714,21
1643470756794,24942.1150742,4
1643470756794,24942.1150772,-14
1643470756794,24942.1150801,-30
1643470756794,24942.115083,-40
1643470756794,24942.1150858,-49
1643470756794,24942.1150886,-54
1643470756794,24942.1150915,-52
1643470756794,24942.1150943,-47
1643470756794,24942.1150971,-49
1643470756827,24942.1151,-54
1643470756827,24942.1151028,-44
1643470756827,24942.1151057,-30
1643470756827,24942.1151087,-28
1643470756827,24942.115112,-23
1643470756827,24942.1151148,-11
1643470756827,24942.1151177,-7
1643470756827,24942.1151205,-9
1643470756827,24942.1151234,-18
1643470756827,24942.1151263,-18
1643470756862,24942.1151292,-2
1643470756862,24942.1151322,7
1643470756862,24942.1151356,7
1643470756862,24942.1151391,16
1643470756862,24942.115142,18
1643470756862,24942.1151449,-4
1643470756862,24942.1151478,-21
1643470756862,24942.1151508,-7
1643470756862,24942.1151536,9
1643470756862,24942.1151569,9
1643470756895,24942.1151598,21
1643470756895,24942.1151627,28
1643470756895,24942.1151656,11
1643470756895,24942.1151685,7
1643470756895,24942.1151714,30
1643470756895,24942.1151743,56
1643470756895,24942.1153733,63
1643470756895,24942.1153794,61
1643470756895,24942.1153828,54
1643470756895,24942.1153859,56
1643470756929,24942.1153889,59
1643470756929,24942.1153919,33
1643470756929,24942.1153948,9
1643470756929,24942.1153982,9
1643470756929,24942.1154012,9
1643470756929,24942.1154041,4
1643470756929,24942.1154071,0
1643470756929,24942.1154103,-4
1643470756929,24942.1154133,-9
1643470756929,24942.1154233,-18
1643470756961,24942.6630337,-54
1643470756961,24942.6630459,7
1643470756961,24942.6630502,374
1643470756961,24942.6630804,996
1643470756961,24942.6630853,1243
1643470756961,24942.6630887,599
1643470756961,24942.6630924,-194
1643470756961,24942.6630952,-262
1643470756961,24942.663099,-108
1643470756961,24942.663102,-172
1643470756994,24942.6631051,-144
1643470756994,24942.6631081,-61
1643470756994,24942.6631111,-89
1643470756994,24942.663114,-99
1643470756994,24942.6631171,-61
1643470756994,24942.6631201,-54
1643470756994,24942.6631231,-54
1643470756994,24942.663129,-35
1643470756994,24942.6631321,-26
1643470756994,24942.6631352,-18
1643470757026,24942.6631382,0
1643470757026,24942.6631412,14
1643470757026,24942.6631442,23
1643470757026,24942.6631472,28
1643470757416,24942.6631501,35
1643470757416,24942.6631529,56
1643470757416,24942.6631557,78
1643470757416,24942.6631586,89
1643470757416,24942.6631853,101
1643470757416,24942.6631934,113
1643470757416,24942.6631967,123
1643470757416,24942.6631996,123
1643470757416,24942.6632025,108
1643470757416,24942.6632053,99
1643470757437,24942.663208,97
1643470757437,24942.6632107,78
1643470757437,24942.6632135,49
1643470757437,24942.6632162,23
1643470757437,24942.663219,2
1643470757437,24942.6632218,-14
1643470757437,24942.6632245,-23
1643470757437,24942.6632272,-30
1643470757437,24942.66323,-33
1643470757437,24942.6632328,-26
1643470757461,24942.6632356,-11
1643470757461,24942.6632386,-9
1643470757461,24942.6632414,-30
1643470757461,24942.6632442,-37
1643470757461,24942.663247,-18
1643470757461,24942.6632498,0
1643470757461,24942.6632643,14
1643470757461,24942.6632693,14
1643470757461,24942.663273,0
1643470757461,24942.6632789,2
1643470757483,24942.6632822,14
1643470757483,24942.663287,7
1643470757483,24942.6632909,-2
1643470757483,24942.6632939,-2
1643470757483,24942.663298,2
1643470757483,24942.6633031,2
1643470757483,24942.6633062,0
1643470757483,24942.6633101,0
1643470757483,24942.6633132,-9
1643470757483,24942.663317,-18
1643470757503,24942.6633208,-11
1643470757503,24942.6633257,0
1643470757503,24942.6633287,2
1643470757503,24942.6633317,-2
1643470757503,24942.6633348,-2
1643470757503,24942.6633387,0
1643470757503,24942.6633426,2
1643470757503,24942.6633455,4
1643470757503,24942.6633496,16
1643470757503,24943.3105414,33
1643470757527,24943.3106101,44
1643470757527,24943.3106149,59
1643470757527,24943.3106181,66
1643470757527,24943.3106211,54
1643470757527,24943.3106241,35
1643470757527,24943.3106271,11
1643470757527,24943.3106301,-21
1643470757527,24943.310633,-33
1643470757527,24943.3106359,-26
1643470757527,24943.3106388,-26
1643470757550,24943.3106417,-26
1643470757550,24943.3106445,-21
1643470757550,24943.3106475,-18
1643470757550,24943.3106504,-23
1643470757550,24943.3106534,-47
1643470757550,24943.3106563,-52
1643470757550,24943.3106592,106
1643470757550,24943.3106621,580
1643470757550,24943.310665,1096
1643470757550,24943.3106678,930
1643470757571,24943.3106707,116
1643470757571,24943.3106737,-298
1643470757571,24943.3106766,-137
1643470757571,24943.3106795,-94
1643470758019,24943.3106824,-149
1643470758019,24943.3106853,-78
1643470758019,24943.3106882,-47
1643470758019,24943.3106911,-75
1643470758019,24943.3106939,-49
1643470758019,24943.3106968,-21
1643470758019,24943.3106997,-30
1643470758019,24943.3107026,-28
1643470758019,24943.3107055,-11
1643470758019,24943.3107084,-9
1643470758042,24943.3107114,-4
1643470758042,24943.3107143,14
1643470758042,24943.3107173,28
1643470758042,24943.3107205,33
1643470758042,24943.3107235,44
1643470758042,24943.3107263,59
1643470758042,24943.3107292,71
1643470758042,24943.3107321,80
1643470758042,24943.3107349,92
1643470758042,24943.3107378,104
1643470758064,24943.3107407,106
1643470758064,24943.3107436,101
1643470758064,24943.3107465,94
1643470758064,24943.3107494,85
1643470758064,24943.3107524,73
1643470758064,24943.3107553,61
1643470758064,24943.3107582,47
1643470758064,24943.3107613,26
1643470758064,24943.3107641,7
1643470758064,24943.3107671,-9
1643470758085,24943.3107707,-23
1643470758085,24943.3107736,-30
1643470758085,24943.3107766,-37
1643470758085,24943.3107795,-47
1643470758085,24943.3107824,-47
1643470758085,24943.3107854,-35
1643470758085,24943.3107883,-30
1643470758085,24943.3107913,-33
1643470758085,24943.3107942,-28
1643470758085,24943.3107971,-23
1643470758104,24943.3108,-28
1643470758104,24943.3108029,-26
1643470758104,24943.3108057,-16
1643470758104,24943.3108087,-9
1643470758104,24943.3108116,-11
1643470758104,24943.3108145,-14
1643470758104,24943.3108361,-4
1643470758104,24943.3108411,0
1643470758104,24943.9123317,-4
1643470758104,24943.9123439,-11
1643470758129,24943.9123477,-11
1643470758129,24943.9123508,-9
1643470758129,24943.9123539,-9
1643470758129,24943.912357,-16
1643470758129,24943.9123599,-26
1643470758129,24943.912363,-26
1643470758129,24943.9123661,-21
1643470758129,24943.9123698,-21
1643470758129,24943.912373,-18
1643470758129,24943.9123772,-30
1643470758151,24943.9123801,-56
1643470758151,24943.9123831,-56
1643470758151,24943.912386,-42
1643470758151,24943.912389,-42
1643470758151,24943.9123919,-40
1643470758151,24943.9123949,-28
1643470758151,24943.9123978,-16
1643470758151,24943.9124008,-7
1643470758151,24943.9124038,0
1643470758151,24943.9124068,-4
1643470758170,24943.9124101,-18
1643470758170,24943.9124131,-23
1643470758170,24943.912416,-40
1643470758170,24943.9124189,-61
1643470758465,24943.9124219,-52
1643470758465,24943.912425,-35
1643470758465,24943.9124279,-33
1643470758465,24943.9124307,-30
1643470758465,24943.9124337,-33
1643470758465,24943.9124367,-44
1643470758465,24943.9124396,-73
1643470758465,24943.9124713,-66
1643470758465,24943.912487,158
1643470758465,24943.9124916,734
1643470758495,24943.9124949,1219
1643470758495,24943.912498,845
1643470758495,24943.9125009,-61
1643470758495,24943.9125039,-359
1643470758495,24943.9125069,-158
1643470758495,24943.9125098,-163
1643470758495,24943.9125128,-187
1643470758495,24943.9125157,-82
1643470758495,24943.9125186,-82
1643470758495,24943.9128329,-123
1643470758531,24943.9128473,-78
1643470758531,24943.9128517,-44
1643470758531,24943.9128549,-61
1643470758531,24943.912858,-61
1643470758531,24943.912861,-44
1643470758531,24943.9128639,-35
1643470758531,24943.9128669,-16
1643470758531,24943.9128698,-7
1643470758531,24943.9128728,-2
1643470758531,24943.9128761,14
1643470758562,24943.9128791,30
1643470758562,24943.9128821,40
1643470758562,24943.9128851,68
1643470758562,24943.9128881,92
1643470758562,24943.9128911,94
1643470758562,24943.912894,111
1643470758562,24943.912897,130
1643470758562,24943.9129,120
1643470758562,24943.9129029,99
1643470758562,24943.9129059,82
1643470758596,24943.9129088,73
1643470758596,24943.9129118,68
1643470758596,24943.9129147,54
1643470758596,24943.9129177,28
1643470758596,24943.9129213,0
1643470758596,24943.9129243,-18
1643470758596,24943.9129272,-26
1643470758596,24944.3636641,-37
1643470758596,24944.3636784,-54
1643470758596,24944.3636833,-59
1643470758632,24944.3636887,-56
1643470758632,24944.3636918,-54
1643470758632,24944.3637069,-44
1643470758632,24944.3637124,-35
1643470758632,24944.3637156,-35
1643470758632,24944.3637193,-35
1643470758632,24944.3637224,-30
1643470758632,24944.3637278,-33
1643470758632,24944.363731,-30
1643470758632,24944.363734,-21
1643470758660,24944.3637371,-16
1643470758660,24944.3637401,-18
1643470758660,24944.3637431,-23
1643470758660,24944.3637461,-40
1643470758660,24944.3637492,-54
1643470758660,24944.3637544,-49
1643470758660,24944.3637585,-47
1643470758660,24944.3637636,-47
1643470758660,24944.3637678,-44
1643470758660,24944.3637719,-47
1643470758694,24944.3637749,-52
1643470758694,24944.3637777,-49
1643470758694,24944.3637806,-52
1643470758694,24944.3637836,-54
1643470759162,24944.3637865,-52
1643470759162,24944.3637894,-52
1643470759162,24944.3637925,-54
1643470759162,24944.3637954,-52
1643470759162,24944.3637982,-52
1643470759162,24944.3638011,-56
1643470759162,24944.3638043,-47
1643470759162,24944.3638071,-35
1643470759162,24944.3638099,-33
1643470759162,24944.3638128,-21
1643470759193,24944.3638157,-4
1643470759193,24944.3638187,0
1643470759193,24944.3638224,7
1643470759193,24944.3638252,9
1643470759193,24944.3638282,2
1643470759193,24944.363831,-7
1643470759193,24944.3638338,-23
1643470759193,24944.3638375,-40
1643470759193,24944.3638404,-40
1643470759193,24944.3638434,-26
1643470759226,24944.3638463,-16
1643470759226,24944.3638492,-21
1643470759226,24944.3638522,-30
1643470759226,24944.363855,-33
1643470759226,24944.3638579,-59
1643470759226,24944.3638611,-42
1643470759226,24944.3638642,277
1643470759226,24944.3638698,963
1643470759226,24944.363873,1399
1643470759226,24944.3638761,852
1643470759248,24944.3638813,-118
1643470759248,24944.3638846,-355
1643470759248,24944.3638896,-125
1643470759248,24944.3638928,-139
1643470759248,24944.3638978,-163
1643470759248,24944.3639019,-75
1643470759248,24944.3639051,-78
1643470759248,24944.3639089,-99
1643470759248,24944.3639142,-61
1643470759248,24944.3639173,-47
1643470759272,24944.3639225,-56
1643470759272,24944.3639256,-40
1643470759272,24944.3639287,-18
1643470759272,24944.3639318,-9
1643470759272,24944.3639368,0
1643470759272,24944.3639401,16
1643470759272,24945.0581255,30
1643470759272,24945.0581372,40
1643470759272,24945.0581431,56
1643470759272,24945.0581464,75
1643470759295,24945.0581494,87
1643470759295,24945.0581524,106
1643470759295,24945.0581553,132
1643470759295,24945.0581583,142
1643470759295,24945.0581612,132
1643470759295,24945.0581641,106
1643470759295,24945.058167,89
1643470759295,24945.0581701,85
1643470759295,24945.058173,71
1643470759295,24945.0581759,54
1643470759318,24945.0581788,35
1643470759318,24945.0581817,7
1643470759318,24945.0581847,-11
1643470759318,24945.0581876,-23
1643470759318,24945.0581905,-44
1643470759318,24945.0581933,-68
1643470759318,24945.0581962,-78
1643470759318,24945.0581991,-80
1643470759318,24945.058202,-75
1643470759318,24945.058205,-68
1643470759339,24945.0582079,-66
1643470759339,24945.0582108,-63
1643470759339,24945.0582137,-52
1643470759339,24945.0582202,-35
1643470759672,24945.0582232,-30
1643470759672,24945.0582261,-35
1643470759672,24945.0582289,-40
1643470759672,24945.058232,-37
1643470759672,24945.0582349,-28
1643470759672,24945.0582378,-21
1643470759672,24945.0582406,-18
1643470759672,24945.0582435,-18
1643470759672,24945.0582463,-11
1643470759672,24945.0582492,-7
1643470759694,24945.0582521,-9
1643470759694,24945.058255,-7
1643470759694,24945.0582579,-7
1643470759694,24945.0582608,-11
1643470759694,24945.0582636,-14
1643470759694,24945.0582666,-9
1643470759694,24945.0582695,-11
1643470759694,24945.0582724,-14
1643470759694,24945.0582753,-4
1643470759694,24945.0582782,0
1643470759716,24945.0582811,-7
1643470759716,24945.0582841,-11
1643470759716,24945.058287,-7
1643470759716,24945.05829,0
1643470759716,24945.0582929,0
1643470759716,24945.0582958,0
1643470759716,24945.0582988,0
1643470759716,24945.0583017,14
1643470759716,24945.0583047,35
1643470759716,24945.0583075,49
1643470759738,24945.0583105,61
1643470759738,24945.0583133,56
1643470759738,24945.0583162,35
1643470759738,24945.0583192,26
1643470759738,24945.0583221,23
1643470759738,24945.0583251,7
1643470759738,24945.0583281,-2
1643470759738,24945.0583311,7
1643470759738,24945.0583341,11
1643470759738,24945.058337,4
1643470759760,24945.05834,7
1643470759760,24945.058343,11
1643470759760,24945.0583459,-16
1643470759760,24945.0583488,-47
1643470759760,24945.0583516,116
1643470759760,24945.5575744,646
1643470759760,24945.5575857,1243
1643470759760,24945.5575891,1089
1643470759760,24945.5575922,184
1643470759760,24945.5575953,-324
1643470759782,24945.5575983,-153
1643470759782,24945.5576012,-78
1643470759782,24945.5576041,-161
1643470759782,24945.5576071,-99
1643470759782,24945.55761,-54
1643470759782,24945.5576129,-94
1643470759782,24945.5576158,-87
1643470759782,24945.5576187,-49
1643470759782,24945.5576215,-47
1643470759782,24945.5576245,-52
1643470759803,24945.5576274,-33
1643470759803,24945.5576303,-18
1643470759803,24945.5576332,-16
1643470759803,24945.5576361,-4
1643470759803,24945.5576391,11
1643470759803,24945.5576419,14
1643470759803,24945.5576448,16
1643470759803,24945.5576477,26
1643470759803,24945.5576505,40
1643470759803,24945.5576534,59
1643470759827,24945.5576563,78
1643470759827,24945.5576592,85
1643470759827,24945.5576621,92
1643470759827,24945.5576649,99
1643470760137,24945.5576678,94
1643470760137,24945.5576707,78
1643470760137,24945.5576736,66
1643470760137,24945.5576765,52
1643470760137,24945.5576793,30
1643470760137,24945.5576822,16
1643470760137,24945.5576851,0
1643470760137,24945.557688,-23
1643470760137,24945.5576909,-37
1643470760137,24945.5576937,-40
1643470760161,24945.5576966,-44
1643470760161,24945.5576995,-56
1643470760161,24945.5577024,-61
1643470760161,24945.5577053,-56
1643470760161,24945.5577082,-49
1643470760161,24945.5577111,-42
1643470760161,24945.5577141,-33
1643470760161,24945.557717,-30
1643470760161,24945.5577199,-30
1643470760161,24945.5577228,-21
1643470760184,24945.5577257,-11
1643470760184,24945.5577286,-7
1643470760184,24945.5577315,0
1643470760184,24945.5577344,4
1643470760184,24945.5577373,4
1643470760184,24945.5577403,7
1643470760184,24945.5577432,4
1643470760184,24945.5577463,-4
1643470760184,24945.5577492,-2
1643470760184,24945.557752,9
1643470760204,24945.557755,7
1643470760204,24945.5577582,-2
1643470760204,24945.5577612,0
1643470760204,24945.5577641,4
1643470760204,24945.5577677,-2
1643470760204,24945.557771,2
1643470760204,24945.5577738,7
1643470760204,24945.5577768,2
1643470760204,24945.5577796,2
1643470760204,24945.5577825,7
1643470760226,24945.5577854,9
1643470760226,24945.5577883,7
1643470760226,24945.5577912,7
1643470760226,24945.5577941,11
1643470760226,24946.0176536,14
1643470760226,24946.0176653,9
1643470760226,24946.017669,7
1643470760226,24946.0176721,11
1643470760226,24946.0176751,14
1643470760226,24946.0176782,-2
1643470760251,24946.0176812,-21
1643470760251,24946.0176843,-11
1643470760251,24946.0176873,4
1643470760251,24946.0176904,14
1643470760251,24946.0176941,30
1643470760251,24946.0176971,44
1643470760251,24946.0177002,35
1643470760251,24946.0177032,16
1643470760251,24946.0177062,7
1643470760251,24946.0177092,-2
1643470760270,24946.0177122,-16
1643470760270,24946.0177153,-28
1643470760270,24946.0177184,-30
1643470760270,24946.0177218,-28
1643470760270,24946.0177248,-23
1643470760270,24946.0177279,-23
1643470760270,24946.0177309,-21
1643470760270,24946.0177339,-21
1643470760270,24946.0177369,-52
1643470760270,24946.0177399,-26
1643470760293,24946.0177428,274
1643470760293,24946.0177459,862
1643470760293,24946.017749,1176
1643470760293,24946.0177519,639
1643470760719,24946.017755,-153
1643470760719,24946.0177593,-277
1643470760719,24946.0177635,-97
1643470760719,24946.0177666,-132
1643470760719,24946.0177701,-130
1643470760719,24946.0177737,-49
1643470760719,24946.0177767,-59
1643470760719,24946.0177813,-73
1643470760719,24946.0177844,-44
1643470760719,24946.0177876,-37
1643470760752,24946.0177906,-37
1643470760752,24946.0177938,-18
1643470760752,24946.017797,-9
1643470760752,24946.0178001,-7
1643470760752,24946.017804,2
1643470760752,24946.0178074,11
1643470760752,24946.0178105,18
1643470760752,24946.0178136,28
1643470760752,24946.0178166,42
1643470760752,24946.01782,59
1643470760771,24946.0178232,71
1643470760771,24946.0178263,87
1643470760771,24946.0178301,101
1643470760771,24946.0178331,106
1643470760771,24946.0178362,106
1643470760771,24946.0178393,108
1643470760771,24946.0178423,104
1643470760771,24946.0178485,89
1643470760771,24946.017854,73
1643470760771,24946.017859,61
1643470760790,24946.0178641,47
1643470760790,24946.0178692,28
1643470760790,24946.0178736,16
1643470760790,24946.0178767,7
1643470760790,24946.0178798,-7
1643470760790,24946.017883,-26
1643470760790,24946.0178861,-37
1643470760790,24946.0178891,-42
1643470760790,24946.0178931,-42
1643470760790,24946.0178972,-42
1643470760809,24946.0179004,-47
1643470760809,24946.0179038,-49
1643470760809,24946.0179068,-37
1643470760809,24946.6135162,-26
1643470760809,24946.6135307,-26
1643470760809,24946.6135343,-18
1643470760809,24946.6135374,-18
1643470760809,24946.6135405,-40
1643470760809,24946.6135434,-54
1643470760809,24946.6135464,-54
1643470760829,24946.6135506,-63
1643470760829,24946.6135536,-63
1643470760829,24946.6135565,-52
1643470760829,24946.6135594,-54
1643470760829,24946.6135624,-59
1643470760829,24946.6135653,-54
1643470760829,24946.6135686,-47
1643470760829,24946.6135715,-44
1643470760829,24946.6135744,-37
1643470760829,24946.6136179,-35
1643470760850,24946.6136289,-40
1643470760850,24946.6136329,-42
1643470760850,24946.613636,-40
1643470760850,24946.613639,-35
1643470760850,24946.6136421,-21
1643470760850,24946.6136451,-16
1643470760850,24946.6136481,-26
1643470760850,24946.6136511,-28
1643470760850,24946.613654,-21
1643470760850,24946.613657,-16
1643470760871,24946.61366,-21
1643470760871,24946.613663,-26
1643470760871,24946.613666,-18
1643470760871,24946.6136689,-9
1643470761327,24946.6136719,-7
1643470761327,24946.6136749,-7
1643470761327,24946.6136779,2
1643470761327,24946.613681,4
1643470761327,24946.6136839,4
1643470761327,24946.6136869,0
1643470761327,24946.6136899,2
1643470761327,24946.6136928,14
1643470761327,24946.6136958,33
1643470761327,24946.6136988,49
1643470761360,24946.6137017,59
1643470761360,24946.6137047,49
1643470761360,24946.6137076,37
1643470761360,24946.6137106,33
1643470761360,24946.6137136,18
1643470761360,24946.6137167,-4
1643470761360,24946.6137196,-2
1643470761360,24946.6137226,9
1643470761360,24946.6137256,4
1643470761360,24946.6137286,0
1643470761393,24946.6137316,2
1643470761393,24946.6137346,0
1643470761393,24946.6137377,-28
1643470761393,24946.6137408,-7
1643470761393,24946.6137438,322
1643470761393,24946.613747,987
1643470761393,24946.61375,1340
1643470761393,24946.6137532,729
1643470761393,24946.6137562,-175
1643470761393,24946.6137592,-329
1643470761426,24946.6137622,-120
1643470761426,24946.6137652,-156
1643470761426,24946.6137682,-153
1643470761426,24946.6137712,-54
1643470761426,24946.6137742,-71
1643470761426,24946.6137773,-97
1643470761426,24946.6137802,-61
1643470761426,24946.6137833,-54
1643470761426,24946.6137862,-66
1643470761426,24946.6137891,-47
1643470761462,24946.6137921,-30
1643470761462,24946.6137951,-28
1643470761462,24947.2137033,-21
1643470761462,24947.2137228,-4
1643470761462,24947.2137269,11
1643470761462,24947.2137301,16
1643470761462,24947.2137332,23
1643470761462,24947.2137362,44
1643470761462,24947.2137392,61
1643470761462,24947.2137422,75
1643470761493,24947.2137452,85
1643470761493,24947.2137482,73
1643470761493,24947.2137511,59
1643470761493,24947.2137541,59
1643470761493,24947.2137571,54
1643470761493,24947.2137601,40
1643470761493,24947.2137631,26
1643470761493,24947.2137661,16
1643470761493,24947.2137691,14
1643470761493,24947.2137721,2
1643470761527,24947.2137754,-49
1643470761527,24947.2137784,-92
1643470761527,24947.2137815,-87
1643470761527,24947.2137845,-89
1643470761527,24947.2137875,-116
1643470761527,24947.2137905,-106
1643470761527,24947.2137934,-82
1643470761527,24947.2137964,-87
1643470761527,24947.2137993,-94
1643470761527,24947.2138023,-80
1643470761560,24947.2138052,-68
1643470761560,24947.2138081,-68
1643470761560,24947.2138111,-56
1643470761560,24947.213814,-37
1643470761882,24947.2138169,-35
1643470761882,24947.2138198,-42
1643470761882,24947.2138227,-40
1643470761882,24947.2138257,-30
1643470761882,24947.2138286,-23
1643470761882,24947.2138317,-16
1643470761882,24947.2138346,-16
1643470761882,24947.2138464,-16
1643470761882,24947.2138508,-11
1643470761882,24947.2138538,-11
1643470761906,24947.2138638,-14
1643470761906,24947.2138684,-7
1643470761906,24947.2138715,-4
1643470761906,24947.2138745,-9
1643470761906,24947.2138775,-11
1643470761906,24947.2138806,-11
1643470761906,24947.2139683,-14
1643470761906,24947.2139891,-7
1643470761906,24947.2140037,-2
1643470761906,24947.2140079,0
1643470761926,24947.2140112,2
1643470761926,24947.2140143,2
1643470761926,24947.2140173,2
1643470761926,24947.2140204,7
1643470761926,24947.2140236,11
1643470761926,24947.2140301,9
1643470761926,24947.2140335,11
1643470761926,24947.2140394,18
1643470761926,24947.2140427,23
1643470761926,24947.2140457,30
1643470761948,24947.2140491,44
1643470761948,24947.2140521,66
1643470761948,24947.2140551,75
1643470761948,24947.2140582,68
1643470761948,24947.2140746,49
1643470761948,24947.2140782,37
1643470761948,24947.2140813,30
1643470761948,24947.2140844,14
1643470761948,24947.2140873,4
1643470761948,24947.2140903,16
1643470761970,24947.2140933,26
1643470761970,24947.7630882,11
1643470761970,24947.7631021,2
1643470761970,24947.7631058,4
1643470761970,24947.7631091,-11
1643470761970,24947.7631145,-56
1643470761970,24947.7631178,23
1643470761970,24947.763123,478
1643470761970,24947.7631262,1176
1643470761970,24947.7631311,1342
1643470761993,24947.7631341,539
1643470761993,24947.7631374,-274
1643470761993,24947.7631422,-272
1643470761993,24947.7631453,-78
1643470761993,24947.7631486,-144
1643470761993,24947.7631537,-146
1643470761993,24947.763158,-94
1643470761993,24947.7631613,-111
1643470761993,24947.7631649,-106
1643470761993,24947.7631681,-75
1643470762015,24947.7631741,-75
1643470762015,24947.7631773,-75
1643470762015,24947.7631805,-63
1643470762015,24947.763186,-52
1643470762015,24947.7631893,-42
1643470762015,24947.7631943,-26
1643470762015,24947.7631973,-9
1643470762015,24947.7632004,-2
1643470762015,24947.7632036,7
1643470762015,24947.7632067,26
1643470762037,24947.7632101,49
1643470762037,24947.763215,66
1643470762037,24947.7632197,82
1643470762037,24947.7632238,104
1643470762527,24947.763227,116
1643470762527,24947.7632301,123
1643470762527,24947.763233,125
1643470762527,24947.7632359,113
1643470762527,24947.763239,94
1643470762527,24947.7632423,73
1643470762527,24947.7632452,47
1643470762527,24947.7632483,23
1643470762527,24947.7632512,4
1643470762527,24947.7632541,-16
1643470762549,24947.763257,-37
1643470762549,24947.7632601,-47
1643470762549,24947.763263,-49
1643470762549,24947.763266,-56
1643470762549,24947.7632689,-56
1643470762549,24947.7632719,-52
1643470762549,24947.7632749,-52
1643470762549,24947.7632783,-47
1643470762549,24947.7632813,-40
1643470762549,24947.7632844,-30
1643470762571,24947.7632875,-18
1643470762571,24947.7632917,-11
1643470762571,24947.7632949,-11
1643470762571,24947.7633001,-14
1643470762571,24947.7633034,-16
1643470762571,24947.7633085,-9
1643470762571,24947.7633115,-2
1643470762571,24947.7633146,-11
1643470762571,24947.7633177,-9
1643470762571,24947.7633208,16
1643470762592,24947.763325,23
1643470762592,24947.7633281,4
1643470762592,24947.7633321,-2
1643470762592,24947.7633353,7
1643470762592,24947.7633402,4
1643470762592,24947.763344,4
1643470762592,24947.7633473,11
1643470762592,24947.7633524,9
1643470762592,24947.7633554,7
1643470762592,24947.7633586,7
1643470762617,24948.4116329,2
1643470762617,24948.4116476,4
1643470762617,24948.4116633,14
1643470762617,24948.4116675,18
1643470762617,24948.4116707,16
1643470762617,24948.4116738,18
1643470762617,24948.4116768,18
1643470762617,24948.4116799,18
1643470762617,24948.4116829,30
1643470762617,24948.4116859,44
1643470762638,24948.411689,61
1643470762638,24948.411692,73
1643470762638,24948.411695,63
1643470762638,24948.411698,28
1643470762638,24948.4117011,11
1643470762638,24948.4117041,21
1643470762638,24948.4117071,4
1643470762638,24948.4117104,-28
1643470762638,24948.4117136,-35
1643470762638,24948.4117166,-18
1643470762659,24948.4117195,-14
1643470762659,24948.4117227,-16
1643470762659,24948.4117257,-16
1643470762659,24948.4117286,-16
1643470762659,24948.4117316,-37
1643470762659,24948.4117346,-49
1643470762659,24948.4117376,113
1643470762659,24948.4117408,629
1643470762659,24948.4117438,1172
1643470762659,24948.411747,954
1643470762682,24948.41175,71
1643470762682,24948.411753,-352
1643470762682,24948.411756,-165
1643470762682,24948.411759,-106
1643470762972,24948.4117619,-156
1643470762972,24948.4117649,-78
1643470762972,24948.4117679,-54
1643470762972,24948.4117716,-94
1643470762972,24948.4117747,-78
1643470762972,24948.4117777,-54
1643470762972,24948.4117806,-54
1643470762972,24948.4117839,-47
1643470762972,24948.4117873,-37
1643470762972,24948.4117906,-35
1643470762992,24948.4117936,-23
1643470762992,24948.4117971,-7
1643470762992,24948.4118005,7
1643470762992,24948.4118036,16
1643470762992,24948.4118067,26
1643470762992,24948.4118097,35
1643470762992,24948.4118127,44
1643470762992,24948.4118157,54
1643470762992,24948.4118187,68
1643470762992,24948.411822,82
1643470763014,24948.4118254,92
1643470763014,24948.4118284,94
1643470763014,24948.4118314,87
1643470763014,24948.4118343,73
1643470763014,24948.4118377,61
1643470763014,24948.4118407,49
1643470763014,24948.4118438,35
1643470763014,24948.4118467,7
1643470763014,24948.4118498,-16
1643470763014,24948.4118532,-26
1643470763038,24948.4118566,-35
1643470763038,24948.4118597,-52
1643470763038,24948.4118627,-61
1643470763038,24948.4118658,-63
1643470763038,24948.4118689,-59
1643470763038,24948.4119347,-54
1643470763038,24948.4119428,-52
1643470763038,24948.411946,-47
1643470763038,24948.4119491,-37
1643470763038,24948.8634357,-30
1643470763059,24948.8634505,-23
1643470763059,24948.8634541,-16
1643470763059,24948.8634572,-16
1643470763059,24948.8634603,-11
1643470763059,24948.8634634,-4
1643470763059,24948.8634673,0
1643470763059,24948.8634785,0
1643470763059,24948.8634856,-2
1643470763059,24948.8634997,-9
1643470763059,24948.8635032,-11
1643470763083,24948.8635092,-14
1643470763083,24948.8635123,-9
1643470763083,24948.8635153,2
1643470763083,24948.8635184,-4
1643470763083,24948.8635214,-14
1643470763083,24948.8635256,-7
1643470763083,24948.8635346,-7
1643470763083,24948.8635403,-18
1643470763083,24948.8635435,-18
1643470763083,24948.8635475,-11
1643470763106,24948.8635506,-14
1643470763106,24948.8635537,-21
1643470763106,24948.8635567,-28
1643470763106,24948.8635598,-35
1643470763106,24948.8635628,-33
1643470763106,24948.8635659,-23
1643470763106,24948.8635711,-21
1643470763106,24948.8635743,-4
1643470763106,24948.8635774,21
1643470763106,24948.8635805,26
1643470763127,24948.8635846,21
1643470763127,24948.8635875,21
1643470763127,24948.8635906,14
1643470763127,24948.8635935,-4
1643470763793,24948.8635967,-18
1643470763793,24948.8635997,-30
1643470763793,24948.8636025,-35
1643470763793,24948.8636054,-28
1643470763793,24948.8636084,-23
1643470763793,24948.8636113,-21
1643470763793,24948.8636142,-18
1643470763793,24948.8636171,-28
1643470763793,24948.8636201,-63
1643470763793,24948.863623,-75
1643470763827,24948.8636259,118
1643470763827,24948.8636287,658
1643470763827,24948.8636316,1195
1643470763827,24948.8636344,949
1643470763827,24948.8636372,42
1643470763827,24948.8636401,-378
1643470763827,24948.863643,-196
1643470763827,24948.8636458,-156
1643470763827,24948.8636486,-196
1643470763827,24948.8636514,-99
1643470763860,24948.8636542,-78
1643470763860,24948.863657,-120
1643470763860,24948.8636599,-97
1643470763860,24948.8636627,-68
1643470763860,24948.8636656,-78
1643470763860,24948.8636685,-73
1643470763860,24948.8636714,-52
1643470763860,24948.8636742,-44
1643470763860,24948.8636771,-42
1643470763860,24948.86368,-23
1643470763892,24948.8636828,-4
1643470763892,24948.8636857,7
1643470763892,24948.8636886,16
1643470763892,24948.8636914,30
1643470763892,24948.8636942,44
1643470763892,24948.8636971,61
1643470763892,24948.8636999,78
1643470763892,24948.8637028,89
1643470763892,24949.6626496,101
1643470763892,24949.6626624,104
1643470763926,24949.6626663,94
1643470763926,24949.6626716,82
1643470763926,24949.6626749,68
1643470763926,24949.6626803,54
1643470763926,24949.6626835,35
1643470763926,24949.6626884,14
1643470763926,24949.6626917,-9
1643470763926,24949.6626965,-42
1643470763926,24949.6626996,-89
1643470763926,24949.6627045,-108
1643470763960,24949.6627077,-106
1643470763960,24949.6627126,-108
1643470763960,24949.6627158,-106
1643470763960,24949.6627206,-97
1643470763960,24949.6627237,-94
1643470763960,24949.6627286,-92
1643470763960,24949.6627318,-80
1643470763960,24949.6627368,-73
1643470763960,24949.66274,-66
1643470763960,24949.6627447,-54
1643470763992,24949.6627479,-54
1643470763992,24949.6627528,-59
1643470763992,24949.662756,-44
1643470763992,24949.6627608,-28
1643470763992,24949.6627641,-33
1643470763992,24949.6627689,-33
1643470763992,24949.662772,-28
1643470763992,24949.6627769,-33
1643470763992,24949.6627801,-37
1643470763992,24949.6627849,-28
1643470764026,24949.6627882,-18
1643470764026,24949.6627931,-23
1643470764026,24949.6627962,-30
1643470764026,24949.6628015,-35
1643470764260,24949.6628048,-42
1643470764260,24949.6628078,-40
1643470764260,24949.6628108,-30
1643470764260,24949.6628137,-18
1643470764260,24949.6628166,-16
1643470764260,24949.6628195,-16
1643470764260,24949.6628224,-18
1643470764260,24949.6628254,-18
1643470764260,24949.6628283,-7
1643470764260,24949.6628313,21
1643470764293,24949.6628342,44
1643470764293,24949.6628372,44
1643470764293,24949.6628402,30
1643470764293,24949.6628431,21
1643470764293,24949.6628461,11
1643470764293,24949.662849,-2
1643470764293,24949.662852,-11
1643470764293,24949.6628565,-9
1643470764293,24949.6628596,-7
1643470764293,24949.6628639,-9
1643470764326,24949.6628671,-9
1643470764326,24949.6628726,-9
1643470764326,24949.6628758,-16
1643470764326,24949.6628807,-47
1643470764326,24949.6628837,-26
1643470764326,24949.6628867,298
1643470764326,24949.6628898,987
1643470764326,24949.6628937,1446
1643470764326,24949.6628969,902
1643470764326,24949.6629019,-120
1643470764360,24949.6629049,-381
1643470764360,24949.662908,-125
1643470764360,24949.662913,-130
1643470764360,24949.6629174,-158
1643470764360,24949.6629223,-61
1643470764360,24949.6629266,-63
1643470764360,24949.6629923,-92
1643470764360,24950.1580156,-54
1643470764360,24950.158029,-33
1643470764360,24950.1580335,-42
1643470764393,24950.1580387,-37
1643470764393,24950.1580417,-23
1643470764393,24950.1580447,-16
1643470764393,24950.1580503,-9
1643470764393,24950.1580533,2
1643470764393,24950.1580563,9
1643470764393,24950.1580595,14
1643470764393,24950.158063,33
1643470764393,24950.1580686,56
1643470764393,24950.1580715,73
1643470764416,24950.1580746,87
1643470764416,24950.1580775,106
1643470764416,24950.1580805,123
1643470764416,24950.1580842,130
1643470764416,24950.1580893,125
1643470764416,24950.1580921,118
1643470764416,24950.1580952,106
1643470764416,24950.1580982,85
1643470764416,24950.1581012,59
1643470764416,24950.1581041,40
1643470764438,24950.1581081,18
1643470764438,24950.1581111,-9
1643470764438,24950.1581149,-33
1643470764438,24950.1581178,-49
1643470764438,24950.1581218,-75
1643470764438,24950.1581248,-92
1643470764438,24950.1581277,-89
1643470764438,24950.1581307,-82
1643470764438,24950.1581534,-75
1643470764438,24950.1581624,-68
1643470764459,24950.1581675,-68
1643470764459,24950.1581707,-66
1643470764459,24950.1581738,-56
1643470764459,24950.1581769,-42
1643470764839,24950.15818,-33
1643470764839,24950.1581836,-33
1643470764839,24950.1581865,-30
1643470764839,24950.1581895,-35
1643470764839,24950.1581923,-52
1643470764839,24950.1581952,-49
1643470764839,24950.1581981,-37
1643470764839,24950.1582012,-35
1643470764839,24950.1582041,-33
1643470764839,24950.158207,-28
1643470764886,24950.1582099,-35
1643470764886,24950.1582128,-35
1643470764886,24950.1582157,-21
1643470764886,24950.1582186,-16
1643470764886,24950.1582214,-23
1643470764886,24950.1582242,-23
1643470764886,24950.1582271,-14
1643470764886,24950.1582299,-9
1643470764886,24950.1582327,-11
1643470764886,24950.1582356,-2
1643470764907,24950.1582386,26
1643470764907,24950.1582415,42
1643470764907,24950.1582458,47
1643470764907,24950.1582489,54
1643470764907,24950.1582551,44
1643470764907,24950.1582582,26
1643470764907,24950.1582611,14
1643470764907,24950.1582642,4
1643470764907,24950.1582682,-7
1643470764907,24950.1582714,-9
1643470764940,24950.1582763,-2
1643470764940,24950.1582798,-2
1643470764940,24950.1582846,-4
1643470764940,24950.1582876,-4
1643470764940,24950.1582907,-9
1643470764940,24950.1582942,-49
1643470764940,24950.7121107,-42
1643470764940,24950.7121226,284
1643470764940,24950.7121263,975
1643470764940,24950.7121295,1387
1643470764972,24950.7121326,802
1643470764972,24950.7121357,-144
1643470764972,24950.7121388,-348
1643470764972,24950.7121418,-139
1643470764972,24950.7121447,-163
1643470764972,24950.7121477,-175
1643470764972,24950.7121513,-87
1643470764972,24950.7121545,-92
1643470764972,24950.7121576,-113
1643470764972,24950.7121605,-87
1643470765006,24950.7121636,-68
1643470765006,24950.7121665,-71
1643470765006,24950.7121695,-63
1643470765006,24950.7121724,-47
1643470765006,24950.7121754,-30
1643470765006,24950.7121784,-21
1643470765006,24950.7121814,-16
1643470765006,24950.7121844,-7
1643470765006,24950.7121873,9
1643470765006,24950.7121903,30
1643470765037,24950.7121932,52
1643470765037,24950.7121962,68
1643470765037,24950.7121992,85
1643470765037,24950.7122022,97
1643470765037,24950.7122052,111
1643470765037,24950.7122295,118
1643470765037,24950.7122384,111
1643470765037,24950.712244,97
1643470765037,24950.7122475,80
1643470765037,24950.7122524,56
1643470765071,24950.7122558,37
1643470765071,24950.7122609,21
1643470765071,24950.7122643,-7
1643470765071,24950.7122693,-35
1643470765237,24950.7122726,-47
1643470765237,24950.7122758,-56
1643470765237,24950.7122788,-66
1643470765237,24950.7122819,-71
1643470765237,24950.7122849,-73
1643470765237,24950.712288,-73
1643470765237,24950.712291,-66
1643470765237,24950.712294,-61
1643470765237,24950.712297,-56
1643470765237,24950.7123,-42
1643470765272,24950.7123031,-30
1643470765272,24950.7123061,-28
1643470765272,24950.7123092,-23
1643470765272,24950.7123122,-16
1643470765272,24950.7123153,-11
1643470765272,24950.7123183,-4
1643470765272,24950.7123291,4
1643470765272,24950.712339,7
1643470765272,24950.7123459,7
1643470765272,24950.7123492,4
1643470765305,24950.7123539,2
1643470765305,24950.7123586,7
1643470765305,24950.7123639,7
1643470765305,24950.7123671,4
1643470765305,24950.7123705,9
1643470765305,24950.712376,14
1643470765305,24950.71238,18
1643470765305,24950.7123852,18
1643470765305,24950.7123883,16
1643470765305,24950.7123918,21
1643470765339,24950.7123969,21
1643470765339,24950.7124019,21
1643470765339,24950.7124078,26
1643470765339,24950.712411,26
1643470765339,24950.7124163,26
1643470765339,24951.1134257,33
1643470765339,24951.1134378,40
1643470765339,24951.1134413,59
1643470765339,24951.1134455,85
1643470765339,24951.1134484,92
1643470765371,24951.1134513,80
1643470765371,24951.1134543,73
1643470765371,24951.1134573,63
1643470765371,24951.1134603,49
1643470765371,24951.1134647,37
1643470765371,24951.1134677,28
1643470765371,24951.1134706,26
1643470765371,24951.1134736,23
1643470765371,24951.1134793,16
1643470765371,24951.1134823,9
1643470765404,24951.1134853,14
1643470765404,24951.1134901,7
1643470765404,24951.1134949,-30
1643470765404,24951.1134997,-9
1643470765404,24951.1135041,312
1643470765404,24951.1135089,935
1643470765404,24951.1135118,1248
1643470765404,24951.1135148,655
1643470765404,24951.1135197,-177
1643470765404,24951.1135226,-298
1643470765437,24951.1135256,-94
1643470765437,24951.1135297,-101
1643470765437,24951.1135327,-99
1643470765437,24951.1135356,-37
1643470765437,24951.1135404,-52
1643470765437,24951.1135433,-71
1643470765437,24951.1135463,-63
1643470765437,24951.1135515,-63
1643470765437,24951.1135546,-52
1643470765437,24951.1135586,-37
1643470765472,24951.1135616,-30
1643470765472,24951.1135646,-21
1643470765472,24951.1135685,-9
1643470765472,24951.1135716,-7
1643470765771,24951.1135765,2
1643470765771,24951.1135804,21
1643470765771,24951.1135833,33
1643470765771,24951.1135863,42
1643470765771,24951.113589,59
1643470765771,24951.1135919,71
1643470765771,24951.1135947,85
1643470765771,24951.1135975,97
1643470765771,24951.1136004,99
1643470765771,24951.1136032,92
1643470765814,24951.113606,78
1643470765814,24951.1136089,54
1643470765814,24951.1136118,44
1643470765814,24951.1136147,40
1643470765814,24951.1136175,21
1643470765814,24951.1136203,2
1643470765814,24951.1136231,-4
1643470765814,24951.113626,-16
1643470765814,24951.113629,-30
1643470765814,24951.1136332,-40
1643470765838,24951.1136362,-49
1643470765838,24951.1136402,-54
1643470765838,24951.1136432,-54
1643470765838,24951.113648,-49
1643470765838,24951.1136509,-44
1643470765838,24951.1136569,-40
1643470765838,24951.1136616,-30
1643470765838,24951.1136647,-23
1643470765838,24951.1136996,-16
1643470765838,24951.1137643,-14
1643470765874,24951.1137684,-14
1643470765874,24951.1137715,-11
1643470765874,24951.1137744,-2
1643470765874,24951.1137774,-4
1643470765874,24951.664188,-7
1643470765874,24951.6642002,0
1643470765874,24951.6642038,2
1643470765874,24951.6642068,4
1643470765874,24951.6642098,7
1643470765874,24951.6642127,-2
1643470765905,24951.6642156,-11
1643470765905,24951.6642185,-14
1643470765905,24951.6642213,-9
1643470765905,24951.6642242,-16
1643470765905,24951.664227,-42
1643470765905,24951.6642298,-63
1643470765905,24951.6642327,-49
1643470765905,24951.6642355,-35
1643470765905,24951.6642384,-47
1643470765905,24951.6642441,-52
1643470765938,24951.6642475,-42
1643470765938,24951.6642733,-23
1643470765938,24951.6642778,-11
1643470765938,24951.6642809,-16
1643470765938,24951.6642839,-16
1643470765938,24951.6642868,-7
1643470765938,24951.6642899,-7
1643470765938,24951.664293,-4
1643470765938,24951.664296,11
1643470765938,24951.664299,35
1643470765977,24951.6643021,52
1643470765977,24951.6643051,61
1643470765977,24951.6643081,52
1643470765977,24951.6643111,26
1643470765977,24951.6643141,7
1643470765977,24951.6643171,0
1643470765977,24951.6643201,2
1643470765977,24951.6643231,2
1643470765977,24951.6643261,0
1643470765977,24951.6643292,2
1643470766006,24951.6643322,4
1643470766006,24951.6643352,7
1643470766006,24951.6643381,4
1643470766006,24951.6643412,-26
1643470766337,24951.6643443,-33
1643470766337,24951.6643478,182
1643470766337,24951.6643508,722
1643470766337,24951.6643539,1162
1643470766337,24951.6643569,802
1643470766337,24951.66436,-44
1643470766337,24951.664363,-317
1643470766337,24951.664366,-118
1643470766337,24951.664369,-108
1643470766337,24951.664372,-132
1643470766370,24951.6643751,-47
1643470766370,24951.6643781,-42
1643470766370,24951.6643814,-71
1643470766370,24951.6643844,-40
1643470766370,24951.6643877,-28
1643470766370,24951.6643907,-40
1643470766370,24951.6643941,-26
1643470766370,24951.6643975,-9
1643470766370,24951.6644004,-2
1643470766370,24951.6644043,11
1643470766406,24951.6644074,23
1643470766406,24951.6644105,23
1643470766406,24951.6644146,28
1643470766406,24951.664435,42
1643470766406,24951.6644656,52
1643470766406,24951.6645085,68
1643470766406,24951.664525,85
1643470766406,24951.6647712,94
1643470766406,24951.6648048,101
1643470766406,24951.664829,108
1643470766440,24951.6649141,101
1643470766440,24951.6649192,75
1643470766440,24951.664923,49
1643470766440,24952.2129136,40
1643470766440,24952.2129273,30
1643470766440,24952.2129333,23
1643470766440,24952.2129387,16
1643470766440,24952.2129419,2
1643470766440,24952.2129468,-18
1643470766440,24952.21295,-37
1643470766470,24952.2129554,-49
1643470766470,24952.2129586,-73
1643470766470,24952.2129635,-104
1643470766470,24952.2129668,-108
1643470766470,24952.2129715,-87
1643470766470,24952.2129747,-80
1643470766470,24952.2129801,-82
1643470766470,24952.2129833,-78
1643470766470,24952.2129881,-73
1643470766470,24952.2129914,-71
1643470766504,24952.2129962,-63
1643470766504,24952.2129993,-61
1643470766504,24952.2130041,-54
1643470766504,24952.2130073,-49
1643470766504,24952.2130121,-47
1643470766504,24952.2130153,-42
1643470766504,24952.2130202,-33
1643470766504,24952.2130233,-42
1643470766504,24952.2130284,-42
1643470766504,24952.2130316,-28
1643470766538,24952.2130365,-30
1643470766538,24952.2130396,-35
1643470766538,24952.2130448,-33
1643470766538,24952.2130479,-40
1643470766538,24952.2130536,-49
1643470766538,24952.2130571,-42
1643470766538,24952.213062,-33
1643470766538,24952.2130659,-30
1643470766538,24952.2130707,-33
1643470766538,24952.2130739,-30
1643470766570,24952.2130787,-28
1643470766570,24952.2130818,-30
1643470766570,24952.2130873,-26
1643470766570,24952.2130905,-16
1643470766872,24952.2130954,-18
1643470766872,24952.2130984,-26
1643470766872,24952.2131014,-18
1643470766872,24952.213105,-11
1643470766872,24952.213108,-14
1643470766872,24952.2131112,-14
1643470766872,24952.2131141,-4
1643470766872,24952.2131171,-2
1643470766872,24952.2131206,-2
1643470766872,24952.2131236,11
1643470766903,24952.2131265,28
1643470766903,24952.2131295,42
1643470766903,24952.2131324,49
1643470766903,24952.2131353,42
1643470766903,24952.2131382,30
1643470766903,24952.2131411,23
1643470766903,24952.213144,9
1643470766903,24952.2131469,-9
1643470766903,24952.2131498,-9
1643470766903,24952.2131528,2
1643470766938,24952.2131558,2
1643470766938,24952.2131587,-4
1643470766938,24952.2131616,-16
1643470766938,24952.2131646,-28
1643470766938,24952.2131675,-52
1643470766938,24952.2131704,-54
1643470766938,24952.2131734,182
1643470766938,24952.2131764,807
1643470766938,24952.2131793,1352
1643470766938,24952.2131823,985
1643470766960,24952.2131853,-9
1643470766960,24952.2131884,-395
1643470766960,24952.7649753,-172
1643470766960,24952.7649873,-139
1643470766960,24952.764991,-179
1643470766960,24952.7649942,-85
1643470766960,24952.7649973,-66
1643470766960,24952.7650003,-99
1643470766960,24952.7650033,-78
1643470766960,24952.7650064,-78
1643470766981,24952.7650094,-106
1643470766981,24952.7650124,-97
1643470766981,24952.7650605,-68
1643470766981,24952.7650666,-63
1643470766981,24952.76507,-56
1643470766981,24952.7650732,-35
1643470766981,24952.7650764,-28
1643470766981,24952.7650795,-14
1643470766981,24952.7650846,16
1643470766981,24952.7650876,33
1643470767007,24952.7650905,35
1643470767007,24952.7650935,59
1643470767007,24952.7650964,92
1643470767007,24952.7650993,104
1643470767007,24952.7651022,99
1643470767007,24952.7651052,97
1643470767007,24952.7651081,97
1643470767007,24952.765111,89
1643470767007,24952.7651139,63
1643470767007,24952.7651169,35
1643470767027,24952.7651198,18
1643470767027,24952.7651227,-2
1643470767027,24952.765126,-23
1643470767027,24952.7651289,-35
1643470767027,24952.7651319,-52
1643470767027,24952.7651349,-73
1643470767027,24952.7651378,-78
1643470767027,24952.7651407,-75
1643470767027,24952.7651436,-82
1643470767027,24952.7651465,-82
1643470767049,24952.7651494,-73
1643470767049,24952.7651523,-63
1643470767049,24952.7651552,-54
1643470767049,24952.7651581,-47
1643470767616,24952.765161,-44
1643470767616,24952.7651641,-37
1643470767616,24952.765167,-26
1643470767616,24952.76517,-23
1643470767616,24952.7651729,-23
1643470767616,24952.7651758,-18
1643470767616,24952.7651787,-16
1643470767616,24952.7651817,-11
1643470767616,24952.7651845,-7
1643470767616,24952.7651875,-2
1643470767650,24952.7651904,-7
1643470767650,24952.7651939,-14
1643470767650,24952.7651968,-14
1643470767650,24952.7651997,-16
1643470767650,24952.7652027,-18
1643470767650,24952.7652056,-16
1643470767650,24952.7652086,-14
1643470767650,24952.7652115,-14
1643470767650,24952.7652145,-11
1643470767650,24952.7652174,-9
1643470767682,24952.7652203,-7
1643470767682,24952.7652233,0
1643470767682,24952.7652264,2
1643470767682,24952.7652294,2
1643470767682,24952.7652325,9
1643470767682,24952.7652462,16
1643470767682,24952.7652506,16
1643470767682,24952.7652538,23
1643470767682,24952.7652568,40
1643470767682,24952.7652597,54
1643470767719,24952.7652627,68
1643470767719,24953.5086078,68
1643470767719,24953.5086222,56
1643470767719,24953.5086261,47
1643470767719,24953.5086292,37
1643470767719,24953.5086323,18
1643470767719,24953.5086354,-7
1643470767719,24953.5086384,-33
1643470767719,24953.5086414,-35
1643470767719,24953.5086444,-28
1643470767748,24953.5086475,-30
1643470767748,24953.5086505,-33
1643470767748,24953.5086535,-40
1643470767748,24953.5086565,-80
1643470767748,24953.508664,-42
1643470767748,24953.5086699,350
1643470767748,24953.5086732,1051
1643470767748,24953.5086826,1328
1643470767748,24953.5086857,620
1643470767748,24953.5086888,-253
1643470767784,24953.5086918,-322
1643470767784,24953.5086948,-101
1643470767784,24953.5086978,-144
1643470767784,24953.508701,-146
1643470767784,24953.508704,-59
1643470767784,24953.5087071,-71
1643470767784,24953.5087213,-89
1643470767784,24953.5087253,-54
1643470767784,24953.5087284,-42
1643470767784,24953.5087313,-54
1643470767817,24953.5087343,-42
1643470767817,24953.5087372,-21
1643470767817,24953.5087402,-7
1643470767817,24953.5087432,4
1643470767817,24953.5087462,14
1643470767817,24953.5087492,21
1643470767817,24953.5087525,33
1643470767817,24953.5087768,59
1643470767817,24953.5088553,75
1643470767817,24953.5089349,85
1643470767849,24953.508943,101
1643470767849,24953.5089466,118
1643470767849,24953.5089498,130
1643470767849,24953.5089529,142
1643470768181,24953.5089559,137
1643470768181,24953.5089589,120
1643470768181,24953.508962,99
1643470768181,24953.508965,75
1643470768181,24953.508968,54
1643470768181,24953.5089794,26
1643470768181,24953.5089855,-4
1643470768181,24953.5089938,-28
1643470768181,24953.5089974,-52
1643470768181,24953.5090004,-73
1643470768218,24953.5090034,-78
1643470768218,24953.5090064,-75
1643470768218,24953.5090093,-73
1643470768218,24953.5090122,-71
1643470768218,24953.5090151,-71
1643470768218,24953.5090181,-68
1643470768218,24953.5090209,-56
1643470768218,24953.5090238,-44
1643470768218,24953.5090268,-42
1643470768218,24953.5090298,-35
1643470768251,24953.5090327,-28
1643470768251,24953.5090356,-21
1643470768251,24953.5090386,-14
1643470768251,24953.5090415,-7
1643470768251,24953.5090446,0
1643470768251,24953.5090479,4
1643470768251,24953.5090508,7
1643470768251,24953.5090538,0
1643470768251,24953.5090568,0
1643470768251,24953.5090597,9
1643470768283,24954.0588614,11
1643470768283,24954.058874,14
1643470768283,24954.058945,18
1643470768283,24954.0589532,18
1643470768283,24954.0589574,11
1643470768283,24954.0589624,11
1643470768283,24954.0589653,14
1643470768283,24954.0589684,23
1643470768283,24954.0589714,23
1643470768283,24954.0589755,16
1643470768317,24954.0589784,11
1643470768317,24954.0589814,7
1643470768317,24954.0589844,9
1643470768317,24954.0589905,18
1643470768317,24954.0589937,18
1643470768317,24954.0589984,18
1643470768317,24954.0590015,28
1643470768317,24954.0590059,42
1643470768317,24954.0590098,47
1643470768317,24954.0590129,54
1643470768349,24954.0590176,63
1643470768349,24954.0590208,54
1643470768349,24954.0590256,35
1643470768349,24954.0590285,14
1643470768349,24954.0590317,-11
1643470768349,24954.0590365,-23
1643470768349,24954.0590394,-14
1643470768349,24954.0590424,-11
1643470768349,24954.0590464,-9
1643470768349,24954.0590494,-4
1643470768382,24954.0590533,-7
1643470768382,24954.0590564,-23
1643470768382,24954.0590612,-61
1643470768382,24954.0590643,-21
1643470768382,24954.059069,333
1643470768382,24954.0590719,970
1643470768382,24954.059075,1236
1643470768382,24954.059079,587
1643470768382,24954.0590821,-232
1643470768382,24954.059086,-298
1643470768416,24954.0590891,-99
1643470768416,24954.0590929,-149
1643470768416,24954.059096,-142
1643470768416,24954.0590999,-61
1643470768617,24954.0591051,-85
1643470768617,24954.0591084,-101
1643470768617,24954.0591115,-66
1643470768617,24954.0591145,-54
1643470768617,24954.0591174,-54
1643470768617,24954.0591203,-37
1643470768617,24954.0591233,-23
1643470768617,24954.0591263,-16
1643470768617,24954.0591291,-9
1643470768617,24954.059132,4
1643470768651,24954.0591781,23
1643470768651,24954.0591857,35
1643470768651,24954.0591891,44
1643470768651,24954.0591921,59
1643470768651,24954.0591951,73
1643470768651,24954.059198,87
1643470768651,24954.0592366,101
1643470768651,24954.0592402,118
1643470768651,24954.0592443,125
1643470768651,24954.0592501,113
1643470768684,24954.0592537,94
1643470768684,24954.0592585,82
1643470768684,24954.0592615,68
1643470768684,24954.0592646,47
1643470768684,24954.0592686,21
1643470768684,24954.0592718,-2
1643470768684,24954.0592764,-16
1643470768684,24954.0592802,-30
1643470768684,24954.0592832,-37
1643470768684,24954.5108111,-47
1643470768718,24954.5108684,-56
1643470768718,24954.5108747,-56
1643470768718,24954.5108782,-52
1643470768718,24954.5108814,-47
1643470768718,24954.5108845,-40
1643470768718,24954.5108876,-30
1643470768718,24954.5108909,-26
1643470768718,24954.5108941,-21
1643470768718,24954.5108971,-16
1643470768718,24954.5109008,-11
1643470768749,24954.5109039,-7
1643470768749,24954.510907,0
1643470768749,24954.51091,4
1643470768749,24954.510913,7
1643470768749,24954.5109165,-2
1643470768749,24954.5109199,-18
1643470768749,24954.5109228,-18
1643470768749,24954.5109258,-7
1643470768749,24954.5109288,-4
1643470768749,24954.5109317,-9
1643470768782,24954.5109347,-11
1643470768782,24954.5109376,-14
1643470768782,24954.5109406,-11
1643470768782,24954.5109446,-7
1643470768782,24954.5109476,0
1643470768782,24954.5109506,0
1643470768782,24954.5109536,-7
1643470768782,24954.5109566,-16
1643470768782,24954.5109595,-18
1643470768782,24954.5109624,-14
1643470768819,24954.5109654,-9
1643470768819,24954.5109684,-11
1643470768819,24954.5109713,-21
1643470768819,24954.5109743,-26
1643470768819,24954.5109773,-14
1643470768819,24954.5109803,-7
1643470768819,24954.5109832,-14
1643470768819,24954.5109862,-9
1643470768819,24954.5109892,14
1643470768819,24954.5109922,37
1643470768849,24954.5109953,47
1643470768849,24954.5109983,52
1643470768849,24954.5110012,42
1643470768849,24954.5110043,23
1643470769183,24954.5110073,14
1643470769183,24954.5110103,2
1643470769183,24954.5110132,-9
1643470769183,24954.5110162,-11
1643470769183,24954.5110192,-11
1643470769183,24954.5110222,-11
1643470769183,24954.5110252,-11
1643470769183,24954.5110282,-9
1643470769183,24954.5110311,-9
1643470769183,24954.5110341,-33
1643470769216,24954.5110371,-37
1643470769216,24954.5110401,189
1643470769216,24954.5110431,769
1643470769216,24954.5110461,1233
1643470769216,24954.5110491,828
1643470769216,24954.5110522,-80
1643470769216,24954.5110552,-355
1643470769216,24954.5110582,-142
1643470769216,24954.5110611,-142
1643470769216,24954.5110641,-163
1643470769249,24954.5110678,-59
1643470769249,24954.5110708,-56
1643470769249,24954.5110744,-99
1643470769249,24954.5110775,-71
1643470769249,24954.5110806,-47
1643470769249,24954.5110836,-44
1643470769249,24954.5110867,-21
1643470769249,24954.5110897,-9
1643470769249,24955.058668,-18
1643470769249,24955.0586826,-16
1643470769287,24955.0586866,2
1643470769287,24955.05869,16
1643470769287,24955.0586931,23
1643470769287,24955.0586961,35
1643470769287,24955.0586991,42
1643470769287,24955.058702,30
1643470769287,24955.0587049,16
1643470769287,24955.0587078,35
1643470769287,24955.0587107,61
1643470769287,24955.0587141,56
1643470769316,24955.0587174,52
1643470769316,24955.0587203,52
1643470769316,24955.0587233,28
1643470769316,24955.0587262,7
1643470769316,24955.0587291,2
1643470769316,24955.058732,-9
1643470769316,24955.0587349,-37
1643470769316,24955.0587378,-56
1643470769316,24955.0587406,-73
1643470769316,24955.0587435,-89
1643470769349,24955.0587464,-97
1643470769349,24955.0587493,-94
1643470769349,24955.0587521,-99
1643470769349,24955.0587549,-113
1643470769349,24955.0587578,-111
1643470769349,24955.0587607,-99
1643470769349,24955.0587636,-94
1643470769349,24955.0587664,-87
1643470769349,24955.0587693,-78
1643470769349,24955.0587722,-71
1643470769383,24955.0587751,-66
1643470769383,24955.0587781,-56
1643470769383,24955.0587812,-54
1643470769383,24955.0587845,-49
1643470769383,24955.0587873,-40
1643470769383,24955.058791,-37
1643470769383,24955.0587939,-33
1643470769383,24955.0587968,-30
1643470769383,24955.0587997,-35
1643470769383,24955.0588026,-35
1643470769416,24955.0588055,-33
1643470769416,24955.0588084,-35
1643470769416,24955.0588113,-28
1643470769416,24955.0588141,-16
1643470769783,24955.058817,-18
1643470769783,24955.0588199,-18
1643470769783,24955.0588227,-16
1643470769783,24955.0588256,-23
1643470769783,24955.0588284,-28
1643470769783,24955.0588313,-23
1643470769783,24955.0588341,-18
1643470769783,24955.0588371,-9
1643470769783,24955.05884,-7
1643470769783,24955.0588428,-9
1643470769816,24955.0588462,9
1643470769816,24955.0588491,35
1643470769816,24955.0588519,44
1643470769816,24955.0588553,49
1643470769816,24955.0588582,47
1643470769816,24955.0588611,33
1643470769816,24955.058864,18
1643470769816,24955.0588669,14
1643470769816,24955.0588699,2
1643470769816,24955.0588728,-4
1643470769837,24955.0588759,-2
1643470769837,24955.0588787,2
1643470769837,24955.0588816,-4
1643470769837,24955.0588846,-7
1643470769837,24955.0588875,0
1643470769837,24955.0588904,-11
1643470769837,24955.0588934,-47
1643470769837,24955.6574141,54
1643470769837,24955.6574276,554
1643470769837,24955.6574312,1274
1643470769858,24955.6574346,1345
1643470769858,24955.6574399,412
1643470769858,24955.6574442,-381
1643470769858,24955.6574491,-296
1643470769858,24955.6574524,-134
1643470769858,24955.6574574,-213
1643470769858,24955.6574623,-151
1643470769858,24955.6574671,-75
1643470769858,24955.6574705,-113
1643470769858,24955.6574753,-113
1643470769881,24955.6574783,-80
1643470769881,24955.6574815,-66
1643470769881,24955.6574864,-49
1643470769881,24955.6574906,-37
1643470769881,24955.6574953,-42
1643470769881,24955.6574998,-33
1643470769881,24955.6575046,-11
1643470769881,24955.6575079,-7
1643470769881,24955.6575128,4
1643470769881,24955.6575173,28
1643470769904,24955.657522,37
1643470769904,24955.6575267,52
1643470769904,24955.6575318,80
1643470769904,24955.657535,101
1643470769904,24955.6575399,113
1643470769904,24955.6575444,127
1643470769904,24955.6575493,127
1643470769904,24955.6575542,120
1643470769904,24955.657559,111
1643470769904,24955.6575621,89
1643470769926,24955.657567,61
1643470769926,24955.6575717,37
1643470769926,24955.6575765,26
1643470769926,24955.6575797,4
1643470769926,24955.6575845,-33
1643470769926,24955.657589,-61
1643470769926,24955.6575937,-66
1643470769926,24955.657597,-73
1643470769926,24955.6576018,-89
1643470769926,24955.6576063,-92
1643470769949,24955.6576111,-80
1643470769949,24955.6576157,-85
1643470769949,24955.6576214,-87
1643470769949,24955.6576244,-61
1643470770473,24955.6576276,-49
1643470770473,24955.6576307,-59
1643470770473,24955.6576337,-47
1643470770473,24955.6576367,-26
1643470770473,24955.6576397,-30
1643470770473,24955.6576426,-33
1643470770473,24955.6576456,-9
1643470770473,24955.6576487,0
1643470770473,24955.6576517,-7
1643470770473,24955.6576546,-2
1643470770505,24955.6576576,-2
1643470770505,24955.6576608,-2
1643470770505,24955.6576638,4
1643470770505,24955.657667,0
1643470770505,24955.65767,-7
1643470770505,24955.657673,2
1643470770505,24955.6576827,16
1643470770505,24955.6577186,9
1643470770505,24955.6577261,-2
1643470770505,24955.6577314,-2
1643470770544,24955.6577364,4
1643470770544,24955.6577398,11
1643470770544,24955.6577451,14
1643470770544,24955.6577482,21
1643470770544,24955.6577514,37
1643470770544,24955.6577564,49
1643470770544,24956.3600411,52
1643470770544,24956.3600525,59
1643470770544,24956.3600561,54
1643470770544,24956.3600593,40
1643470770574,24956.3600623,28
1643470770574,24956.3600653,7
1643470770574,24956.3600684,-9
1643470770574,24956.3600714,2
1643470770574,24956.3600745,14
1643470770574,24956.3600774,2
1643470770574,24956.3600805,0
1643470770574,24956.3600835,-11
1643470770574,24956.3600864,-59
1643470770574,24956.3600894,-106
1643470770606,24956.3600924,-101
1643470770606,24956.3600954,165
1643470770606,24956.3600984,854
1643470770606,24956.3601014,1446
1643470770606,24956.3601044,1037
1643470770606,24956.3601073,-54
1643470770606,24956.3601103,-461
1643470770606,24956.3601133,-194
1643470770606,24956.3601162,-134
1643470770606,24956.3601192,-194
1643470770639,24956.3601222,-116
1643470770639,24956.3601252,-94
1643470770639,24956.3601281,-123
1643470770639,24956.3601311,-92
1643470770639,24956.3601341,-68
1643470770639,24956.3601371,-66
1643470770639,24956.3601401,-47
1643470770639,24956.360143,-37
1643470770639,24956.360146,-33
1643470770639,24956.360149,-23
1643470770673,24956.3601518,-16
1643470770673,24956.3601548,-4
1643470770673,24956.3601577,18
1643470770673,24956.3601607,40
1643470770673,24956.3601636,61
1643470770673,24956.3601665,92
1643470770673,24956.3601695,116
1643470770673,24956.3601725,125
1643470770673,24956.3601754,137
1643470770673,24956.3601783,156
1643470770705,24956.3601813,156
1643470770705,24956.3601843,134
1643470770705,24956.3601873,116
1643470770705,24956.3601904,106
1643470770839,24956.3601934,73
1643470770839,24956.3601965,26
1643470770839,24956.3602357,0
1643470770839,24956.3602428,-14
1643470770839,24956.3602463,-37
1643470770839,24956.3602496,-56
1643470770839,24956.3602529,-61
1643470770839,24956.3602563,-68
1643470770839,24956.3602748,-68
1643470770839,24956.3602788,-59
1643470770874,24956.3602819,-61
1643470770874,24956.3602849,-71
1643470770874,24956.3602879,-68
1643470770874,24956.3603012,-52
1643470770874,24956.3603045,-42
1643470770874,24956.3603075,-37
1643470770874,24956.3603106,-28
1643470770874,24956.3603137,-21
1643470770874,24956.3603168,-16
1643470770874,24956.3603198,-7
1643470770907,24956.3603229,4
1643470770907,24956.3603258,9
1643470770907,24956.3603311,9
1643470770907,24956.3603346,9
1643470770907,24956.3603559,9
1643470770907,24956.713566,11
1643470770907,24956.713579,9
1643470770907,24956.7135831,4
1643470770907,24956.7135883,4
1643470770907,24956.7135916,-4
1643470770939,24956.7135946,-11
1643470770939,24956.7135978,2
1643470770939,24956.7136008,30
1643470770939,24956.7136038,56
1643470770939,24956.7136082,59
1643470770939,24956.7136113,54
1643470770939,24956.7136161,54
1643470770939,24956.7136189,44
1643470770939,24956.7136219,35
1643470770939,24956.7136249,21
1643470770975,24956.7136277,2
1643470770975,24956.7136307,-9
1643470770975,24956.7136337,-14
1643470770975,24956.7136366,-14
1643470770975,24956.7136396,-7
1643470770975,24956.7136438,9
1643470770975,24956.7136468,2
1643470770975,24956.7136498,-40
1643470770975,24956.7136536,-63
1643470770975,24956.7136567,113
1643470771005,24956.7136606,686
1643470771005,24956.7136635,1345
1643470771005,24956.7136665,1188
1643470771005,24956.7136694,177
1643470771005,24956.7136724,-416
1643470771005,24956.7136754,-232
1643470771005,24956.7136783,-113
1643470771005,24956.7136831,-172
1643470771005,24956.7136859,-94
1643470771005,24956.7136893,-44
1643470771038,24956.713694,-89
1643470771038,24956.7136969,-80
1643470771038,24956.7136998,-44
1643470771038,24956.7137031,-47
1643470771038,24956.7137077,-44
1643470771038,24956.7137118,-23
1643470771038,24956.7137159,-9
1643470771038,24956.71372,0
1643470771038,24956.713723,11
1643470771038,24956.7137269,16
1643470771075,24956.7137311,26
1643470771075,24956.7137349,42
1643470771075,24956.7137388,68
1643470771075,24956.7137428,94
1643470771427,24956.7137457,101
1643470771427,24956.7137487,108
1643470771427,24956.7137514,125
1643470771427,24956.7137543,127
1643470771427,24956.713757,116
1643470771427,24956.7137598,111
1643470771427,24956.7137627,94
1643470771427,24956.7137657,71
1643470771427,24956.7137684,56
1643470771427,24956.7137713,40
1643470771463,24956.713774,16
1643470771463,24956.7137769,0
1643470771463,24956.7137797,-18
1643470771463,24956.7137824,-35
1643470771463,24956.7137852,-44
1643470771463,24956.713788,-44
1643470771463,24956.7137908,-42
1643470771463,24956.7137936,-47
1643470771463,24956.7137963,-49
1643470771463,24956.7137991,-37
1643470771495,24956.7138018,-33
1643470771495,24956.7138046,-37
1643470771495,24956.7138082,-33
1643470771495,24956.7138112,-23
1643470771495,24957.3141255,-21
1643470771495,24957.3141653,-21
1643470771495,24957.3141894,-16
1643470771495,24957.3142089,-16
1643470771495,24957.3142215,-14
1643470771495,24957.3142571,-7
1643470771527,24957.3142779,-9
1643470771527,24957.3142985,-14
1643470771527,24957.3143298,-40
1643470771527,24957.3143505,-66
1643470771527,24957.3143541,-59
1643470771527,24957.3143571,-44
1643470771527,24957.31436,-42
1643470771527,24957.3143629,-42
1643470771527,24957.3143659,-42
1643470771527,24957.3143688,-42
1643470771559,24957.3143717,-42
1643470771559,24957.3143747,-35
1643470771559,24957.3143776,-9
1643470771559,24957.3145511,21
1643470771559,24957.3146068,28
1643470771559,24957.3146183,26
1643470771559,24957.3146301,28
1643470771559,24957.3146345,21
1643470771559,24957.3146374,2
1643470771559,24957.3146403,-11
1643470771592,24957.3146433,-14
1643470771592,24957.3146462,-23
1643470771592,24957.3146491,-33
1643470771592,24957.3146521,-26
1643470771592,24957.3146549,-11
1643470771592,24957.3146579,-14
1643470771592,24957.3146607,-18
1643470771592,24957.3146637,-28
1643470771592,24957.3146665,-52
1643470771592,24957.3146694,9
1643470771630,24957.3146724,355
1643470771630,24957.3146753,942
1643470771630,24957.3146781,1158
1643470771630,24957.314681,502
1643470771630,24957.3146905,-262
1643470771630,24957.3146985,-284
1643470771630,24957.3147079,-94
1643470771630,24957.314711,-142
1643470771630,24957.3147139,-111
1643470771630,24957.3147168,-30
1643470771660,24957.3147196,-71
1643470771660,24957.3147225,-85
1643470771660,24957.3147253,-37
1643470771660,24957.3147282,-26
1643470772094,24957.314731,-21
1643470772094,24957.3147339,-4
1643470772094,24957.3147368,2
1643470772094,24957.3147396,14
1643470772094,24957.3147424,23
1643470772094,24957.3147561,18
1643470772094,24957.3147845,26
1643470772094,24957.3147923,40
1643470772094,24957.3147958,54
1643470772094,24957.3147989,71
1643470772128,24957.3148193,87
1643470772128,24957.3148239,113
1643470772128,24957.314827,125
1643470772128,24957.3148299,101
1643470772128,24957.3148329,99
1643470772128,24957.3148358,118
1643470772128,24957.3148393,104
1643470772128,24957.3148422,75
1643470772128,24957.3148451,73
1643470772128,24957.3148479,61
1643470772160,24957.3148509,33
1643470772160,24957.3148538,18
1643470772160,24957.3148568,14
1643470772160,24957.9607173,2
1643470772160,24957.96073,-9
1643470772160,24957.9607336,-21
1643470772160,24957.9607367,-33
1643470772160,24957.9607402,-28
1643470772160,24957.9607432,-28
1643470772160,24957.9607472,-30
1643470772193,24957.9607524,-16
1643470772193,24957.9607555,-11
1643470772193,24957.9607606,-23
1643470772193,24957.9607635,-11
1643470772193,24957.9607665,14
1643470772193,24957.9607694,9
1643470772193,24957.9607723,-26
1643470772193,24957.9607752,-47
1643470772193,24957.9607781,-30
1643470772193,24957.960781,-11
1643470772227,24957.9607841,-16
1643470772227,24957.9607871,-30
1643470772227,24957.9607901,-33
1643470772227,24957.9607941,-37
1643470772227,24957.9607971,-44
1643470772227,24957.9608001,-49
1643470772227,24957.9608032,-52
1643470772227,24957.9608061,-59
1643470772227,24957.9608107,-52
1643470772227,24957.9608143,-52
1643470772262,24957.9608174,-61
1643470772262,24957.9608213,-47
1643470772262,24957.9608251,-33
1643470772262,24957.9608281,-33
1643470772262,24957.960832,-35
1643470772262,24957.9608349,-37
1643470772262,24957.9608388,-33
1643470772262,24957.9608418,-11
1643470772262,24957.9608466,9
1643470772262,24957.9608495,23
1643470772295,24957.960853,26
1643470772295,24957.9608575,11
1643470772295,24957.9608604,-2
1643470772295,24957.9608636,-14
1643470772295,24957.9608666,-33
1643470772295,24957.9608713,-42
1643470772295,24957.9608763,-23
1643470772295,24957.960881,-11
1643470772295,24957.9608854,-21
1643470772295,24957.96089,-26
1643470772329,24957.9608939,-23
1643470772329,24957.9608985,-28
1643470772329,24957.960903,-49
1643470772329,24957.9609078,-47
1643470772688,24957.9609123,187
1643470772688,24957.9609155,779
1643470772688,24957.9609185,1236
1643470772688,24957.9609215,809
1643470772688,24957.9609244,-104
1643470772688,24957.9609273,-369
1643470772688,24957.9609302,-158
1643470772688,24957.9609332,-179
1643470772688,24957.960936,-196
1643470772688,24957.9609389,-73
1643470772709,24957.9609418,-71
1643470772709,24957.9609447,-116
1643470772709,24957.9609475,-80
1643470772709,24957.9609504,-54
1643470772709,24957.9609532,-47
1643470772709,24957.9609561,-21
1643470772709,24957.960959,-18
1643470772709,24957.9609618,-37
1643470772709,24957.9609647,-23
1643470772709,24957.9609675,-2
1643470772746,24957.9609704,2
1643470772746,24957.9609733,16
1643470772746,24958.5625353,35
1643470772746,24958.5625477,52
1643470772746,24958.5625515,68
1643470772746,24958.5625546,80
1643470772746,24958.5625577,82
1643470772746,24958.5625608,99
1643470772746,24958.5625638,120
1643470772746,24958.5625673,116
1643470772782,24958.5625707,92
1643470772782,24958.5625737,80
1643470772782,24958.5625768,73
1643470772782,24958.5625798,63
1643470772782,24958.5625828,52
1643470772782,24958.5625858,40
1643470772782,24958.5625888,21
1643470772782,24958.5625919,-14
1643470772782,24958.5625949,-44
1643470772782,24958.5625979,-44
1643470772806,24958.5626009,-42
1643470772806,24958.562604,-54
1643470772806,24958.562607,-63
1643470772806,24958.56261,-66
1643470772806,24958.562613,-54
1643470772806,24958.562616,-37
1643470772806,24958.562619,-40
1643470772806,24958.562622,-59
1643470772806,24958.562625,-54
1643470772806,24958.5626279,-37
1643470772840,24958.5626309,-33
1643470772840,24958.5626339,-26
1643470772840,24958.5626369,-26
1643470772840,24958.5626399,-47
1643470772840,24958.5626429,-47
1643470772840,24958.5626459,-23
1643470772840,24958.5626489,-11
1643470772840,24958.5626519,-11
1643470772840,24958.5626548,-16
1643470772840,24958.5626578,-23
1643470772874,24958.5626608,-26
1643470772874,24958.5626638,-26
1643470772874,24958.5626667,-42
1643470772874,24958.5626697,-47
1643470772874,24958.5626726,-35
1643470772874,24958.5626756,-26
1643470772874,24958.5626786,-26
1643470772874,24958.5626822,-35
1643470772874,24958.5626852,-35
1643470772874,24958.5626889,-9
1643470772907,24958.562692,-2
1643470772907,24958.562695,-16
1643470772907,24958.562698,-11
1643470772907,24958.5627011,4
1643470773136,24958.5627041,16
1643470773136,24958.5627071,35
1643470773136,24958.5627102,26
1643470773136,24958.5627132,-2
1643470773136,24958.5627161,-4
1643470773136,24958.5627191,-7
1643470773136,24958.5627222,-26
1643470773136,24958.5627253,-23
1643470773136,24958.5627283,-7
1643470773136,24958.5627313,-9
1643470773172,24958.5627343,-26
1643470773172,24958.5627373,-18
1643470773172,24958.5627402,-14
1643470773172,24958.5627451,-42
1643470773172,24958.5627501,-71
1643470773172,24958.5627539,94
1643470773172,24958.5627569,663
1643470773172,24958.5627599,1304
1643470773172,24958.5627629,1136
1643470773172,24958.5627659,146
1643470773206,24958.5627688,-390
1643470773206,24959.0115377,-184
1643470773206,24959.011549,-118
1643470773206,24959.0115526,-194
1643470773206,24959.0115557,-61
1643470773206,24959.0115588,0
1643470773206,24959.0115617,-80
1643470773206,24959.0115648,-82
1643470773206,24959.0115679,-40
1643470773206,24959.0115709,-42
1643470773241,24959.0115754,-35
1643470773241,24959.0115785,-7
1643470773241,24959.0115845,11
1643470773241,24959.0115875,21
1643470773241,24959.0115909,30
1643470773241,24959.0115957,54
1643470773241,24959.0116007,73
1643470773241,24959.0116047,68
1643470773241,24959.0116075,66
1643470773241,24959.0116104,89
1643470773273,24959.0116132,106
1643470773273,24959.0116161,111
1643470773273,24959.0116192,130
1643470773273,24959.0116222,156
1643470773273,24959.0116253,156
1643470773273,24959.0116296,127
1643470773273,24959.011635,106
1643470773273,24959.0116397,108
1643470773273,24959.0116446,99
1643470773273,24959.0116475,75
1643470773306,24959.0116506,28
1643470773306,24959.0116547,-28
1643470773306,24959.0116595,-40
1643470773306,24959.0116624,-37
1643470773306,24959.0116655,-71
1643470773306,24959.0116707,-92
1643470773306,24959.0116751,-78
1643470773306,24959.0116793,-73
1643470773306,24959.0116827,-78
1643470773306,24959.0116873,-71
1643470773342,24959.0116905,-59
1643470773342,24959.0116936,-52
1643470773342,24959.0116984,-42
1643470773342,24959.011703,-42
1643470773342,24959.0117069,-63
1643470773342,24959.0117099,-56
1643470773342,24959.0117147,-23
1643470773342,24959.0117195,-14
1643470773342,24959.0117242,-23
1643470773342,24959.0117284,-21
1643470773375,24959.0117314,-9
1643470773375,24959.0117364,-2
1643470773375,24959.0117409,-9
1643470773375,24959.0117456,-16
1643470773741,24959.0117486,-23
1643470773741,24959.0117516,-33
1643470773741,24959.0117544,-23
1643470773741,24959.0117572,-2
1643470773741,24959.01176,0
1643470773741,24959.0117628,-2
1643470773741,24959.0117657,9
1643470773741,24959.0117686,23
1643470773741,24959.0117715,18
1643470773741,24959.0117743,-2
1643470773776,24959.0117772,-4
1643470773776,24959.01178,0
1643470773776,24959.0117829,0
1643470773776,24959.0117858,16
1643470773776,24959.0117886,40
1643470773776,24959.0117916,59
1643470773776,24959.0117952,66
1643470773776,24959.0118006,56
1643470773776,24959.0118037,35
1643470773776,24959.0118078,21
1643470773811,24959.6094705,28
1643470773811,24959.6095045,26
1643470773811,24959.6095133,16
1643470773811,24959.6095166,9
1643470773811,24959.6095196,-2
1643470773811,24959.6095243,-2
1643470773811,24959.6095274,11
1643470773811,24959.6095304,16
1643470773811,24959.6095335,-18
1643470773811,24959.6095392,-54
1643470773839,24959.6095424,149
1643470773839,24959.6095455,741
1643470773839,24959.6095504,1307
1643470773839,24959.6095533,1030
1643470773839,24959.6095563,56
1643470773839,24959.6095593,-381
1643470773839,24959.6095624,-175
1643470773839,24959.6095677,-144
1643470773839,24959.6095715,-201
1643470773839,24959.6095746,-85
1643470773874,24959.6095776,-49
1643470773874,24959.6095812,-89
1643470773874,24959.6095868,-66
1643470773874,24959.6095899,-40
1643470773874,24959.6095957,-33
1643470773874,24959.6095995,-16
1643470773874,24959.6096046,0
1643470773874,24959.6096078,7
1643470773874,24959.6096108,18
1643470773874,24959.6096139,35
1643470773913,24959.609617,49
1643470773913,24959.6096201,63
1643470773913,24959.6096236,82
1643470773913,24959.6096276,92
1643470773913,24959.6096305,97
1643470773913,24959.6096334,108
1643470773913,24959.6096363,127
1643470773913,24959.6096391,151
1643470773913,24959.6096422,177
1643470773913,24959.6096606,172
1643470773941,24959.6096705,144
1643470773941,24959.6096748,123
1643470773941,24959.6096781,113
1643470773941,24959.6096818,104
1643470773941,24959.6096849,85
1643470773941,24959.6096964,63
1643470773941,24959.6097004,40
1643470773941,24959.6097038,11
1643470773941,24959.6097068,-9
1643470773941,24959.6097098,-28
1643470773970,24959.6097128,-35
1643470773970,24959.6097163,-16
1643470773970,24959.6097219,-9
1643470773970,24959.609725,-14
1643470774237,24959.6097302,-16
1643470774237,24959.6097333,-28
1643470774237,24959.6097362,-33
1643470774237,24959.6097392,-4
1643470774237,24959.6097421,11
1643470774237,24959.6097454,4
1643470774237,24959.6097483,-2
1643470774237,24959.6097515,0
1643470774237,24959.6097544,11
1643470774237,24959.6097573,11
1643470774271,24959.6097602,4
1643470774271,24959.609763,21
1643470774271,24959.6097659,33
1643470774271,24959.6097689,18
1643470774271,24959.6097717,7
1643470774271,24959.6097746,11
1643470774271,24959.6097776,30
1643470774271,24959.6097804,35
1643470774271,24959.6097833,11
1643470774271,24960.1135952,4
1643470774303,24960.1136077,18
1643470774303,24960.1136142,26
1643470774303,24960.1136192,23
1643470774303,24960.1136223,14
1643470774303,24960.1136263,7
1643470774303,24960.1136293,16
1643470774303,24960.1136334,11
1643470774303,24960.1136364,-7
1643470774303,24960.1136413,-11
1643470774303,24960.1136444,-26
1643470774337,24960.1136483,-35
1643470774337,24960.1136513,-2
1643470774337,24960.1136552,9
1643470774337,24960.1136582,-4
1643470774337,24960.1136629,16
1643470774337,24960.1136658,47
1643470774337,24960.1136689,44
1643470774337,24960.1136728,33
1643470774337,24960.1136758,14
1643470774337,24960.1136788,-11
1643470774371,24960.1136817,-7
1643470774371,24960.1136865,2
1643470774371,24960.1136912,-21
1643470774371,24960.1136952,-30
1643470774371,24960.1136982,-9
1643470774371,24960.113701,-9
1643470774371,24960.113704,-28
1643470774371,24960.1137069,-28
1643470774371,24960.1137099,-35
1643470774371,24960.1137129,-63
1643470774404,24960.1137159,0
1643470774404,24960.1137208,359
1643470774404,24960.1137252,970
1643470774404,24960.1137454,1195
1643470774404,24960.1137563,539
1643470774404,24960.1137619,-241
1643470774404,24960.1137652,-277
1643470774404,24960.1137703,-94
1643470774404,24960.1137734,-161
1643470774404,24960.1137773,-137
1643470774438,24960.1137804,-54
1643470774438,24960.1137844,-89
1643470774438,24960.1137875,-92
1643470774438,24960.1137925,-37
1643470774438,24960.1137956,-23
1643470774438,24960.1138006,-28
1643470774438,24960.1138054,-18
1643470774438,24960.1138101,-2
1643470774438,24960.1138148,9
1643470774438,24960.1138196,9
1643470774471,24960.1138226,16
1643470774471,24960.1138258,47
1643470774471,24960.1138307,68
1643470774471,24960.1138353,68
1643470774872,24960.1138401,78
1643470774872,24960.113844,92
1643470774872,24960.1138469,104
1643470774872,24960.1138499,134
1643470774872,24960.1138528,146
1643470774872,24960.1138557,130
1643470774872,24960.1138586,137
1643470774872,24960.1138618,156
1643470774872,24960.1138646,132
1643470774872,24960.1138675,89
1643470774904,24960.1138704,78
1643470774904,24960.1138733,71
1643470774904,24960.1138762,28
1643470774904,24960.1138792,0
1643470774904,24960.113882,0
1643470774904,24960.1138849,-9
1643470774904,24960.113888,-30
1643470774904,24960.1138929,-49
1643470774904,24960.7615382,-56
1643470774904,24960.7615518,-49
1643470774937,24960.7615572,-35
1643470774937,24960.7615627,-28
1643470774937,24960.761566,-28
1643470774937,24960.76157,-23
1643470774937,24960.7615731,-26
1643470774937,24960.761576,-21
1643470774937,24960.7615789,-16
1643470774937,24960.7615818,-21
1643470774937,24960.7615846,-18
1643470774937,24960.7615876,-16
1643470774971,24960.7615906,-37
1643470774971,24960.7615937,-66
1643470774971,24960.7615989,-59
1643470774971,24960.7616019,-37
1643470774971,24960.7616069,-37
1643470774971,24960.76161,-44
1643470774971,24960.761613,-56
1643470774971,24960.7616159,-61
1643470774971,24960.7616187,-52
1643470774971,24960.7616216,-61
1643470775005,24960.7616244,-73
1643470775005,24960.7616272,-61
1643470775005,24960.7616302,-54
1643470775005,24960.7617166,-54
1643470775005,24960.7617274,-47
1643470775005,24960.7617374,-49
1643470775005,24960.7617587,-68
1643470775005,24960.761764,-71
1643470775005,24960.7617675,-49
1643470775005,24960.7617705,-30
1643470775044,24960.7617749,-44
1643470775044,24960.7617777,-59
1643470775044,24960.7617924,-33
1643470775044,24960.7617966,2
1643470775044,24960.7618002,21
1643470775044,24960.7618041,18
1643470775044,24960.7618071,14
1643470775044,24960.7618118,23
1643470775044,24960.7618146,21
1643470775044,24960.7618175,-2
1643470775064,24960.7618205,-23
1643470775064,24960.7618234,-44
1643470775064,24960.7618265,-44
1643470775064,24960.7618295,-28
1643470775064,24960.7618331,-30
1643470775064,24960.761836,-44
1643470775064,24960.761839,-40
1643470775064,24960.761842,-30
1643470775064,24960.7618449,-54
1643470775064,24960.7618479,-78
1643470775086,24960.761851,66
1643470775086,24960.7618565,582
1643470775086,24960.7618595,1212
1643470775086,24960.7618648,1122
1643470775593,24960.7618679,203
1643470775593,24960.7618709,-371
1643470775593,24960.7618741,-224
1643470775593,24960.7618769,-149
1643470775593,24960.7618799,-203
1643470775593,24960.7618827,-94
1643470775593,24960.7618857,-54
1643470775593,24960.7618885,-108
1643470775593,24960.7618915,-78
1643470775593,24960.7618943,-33
1643470775626,24960.7618972,-40
1643470775626,24960.7619001,-26
1643470775626,24960.761903,-9
1643470775626,24960.7619058,-16
1643470775626,24960.7619087,-11
1643470775626,24960.7619116,-2
1643470775626,24960.7619145,2
1643470775626,24961.460353,26
1643470775626,24961.4603638,49
1643470775626,24961.4603672,59
1643470775660,24961.4603703,82
1643470775660,24961.4603733,116
1643470775660,24961.4603763,123
1643470775660,24961.4603792,118
1643470775660,24961.4603821,130
1643470775660,24961.4603851,137
1643470775660,24961.4603879,132
1643470775660,24961.4603908,127
1643470775660,24961.4603937,106
1643470775660,24961.4603965,85
1643470775693,24961.4603994,63
1643470775693,24961.4604023,30
1643470775693,24961.4604051,7
1643470775693,24961.4604081,-14
1643470775693,24961.460411,-52
1643470775693,24961.4604139,-73
1643470775693,24961.4604167,-68
1643470775693,24961.4604195,-73
1643470775693,24961.4604224,-75
1643470775693,24961.4604252,-63
1643470775728,24961.4604281,-68
1643470775728,24961.460431,-101
1643470775728,24961.4604338,-113
1643470775728,24961.4604367,-94
1643470775728,24961.4604396,-82
1643470775728,24961.4604424,-78
1643470775728,24961.4604453,-63
1643470775728,24961.4604482,-73
1643470775728,24961.460451,-89
1643470775728,24961.4604538,-85
1643470775760,24961.4604567,-73
1643470775760,24961.4604595,-61
1643470775760,24961.4604623,-52
1643470775760,24961.4604652,-52
1643470775760,24961.4604681,-47
1643470775760,24961.4604709,-42
1643470775760,24961.4604738,-37
1643470775760,24961.4604766,-30
1643470775760,24961.4604795,-30
1643470775760,24961.4604823,-37
1643470775797,24961.4604852,-44
1643470775797,24961.4604881,-47
1643470775797,24961.460491,-33
1643470775797,24961.4604938,-18
1643470775797,24961.4604967,-26
1643470775797,24961.4604996,-37
1643470775797,24961.4605025,-30
1643470775797,24961.4605054,-23
1643470775797,24961.4605082,-21
1643470775797,24961.4605111,-16
1643470775827,24961.460514,-16
1643470775827,24961.4605169,-7
1643470775827,24961.4605198,11
1643470775827,24961.4605227,23
1643470775894,24961.4605256,33
1643470775894,24961.4605284,44
1643470775894,24961.4605312,37
1643470775894,24961.4605473,23
1643470775894,24961.4605515,18
1643470775894,24961.4605545,9
1643470775894,24961.4605574,-4
1643470775894,24961.4605603,2
1643470775894,24961.4605632,2
1643470775894,24961.4605664,-14
1643470775927,24961.4605695,-11
1643470775927,24961.4605723,4
1643470775927,24961.4605752,-11
1643470775927,24961.4605785,-59
1643470775927,24961.4605815,30
1643470775927,24961.4605845,532
1643470775927,24961.7632833,1278
1643470775927,24961.763296,1416
1643470775927,24961.7632997,523
1643470775927,24961.7633035,-326
1643470775960,24961.7633088,-288
1643470775960,24961.7633138,-97
1643470775960,24961.7633187,-161
1643470775960,24961.763322,-116
1643470775960,24961.7633252,-47
1643470775960,24961.7633299,-92
1643470775960,24961.7633329,-97
1643470775960,24961.7633361,-54
1643470775960,24961.763341,-54
1643470775960,24961.763346,-52
1643470775995,24961.7633511,-18
1643470775995,24961.7633549,-4
1643470775995,24961.76336,-11
1643470775995,24961.763363,-9
1643470775995,24961.7633662,2
1643470775995,24961.7633711,21
1643470775995,24961.7633741,40
1643470775995,24961.7633772,61
1643470775995,24961.7633812,89
1643470775995,24961.7633843,108
1643470776027,24961.7633895,125
1643470776027,24961.7633926,144
1643470776027,24961.7633966,158
1643470776027,24961.7633997,165
1643470776027,24961.7634047,161
1643470776027,24961.7634094,146
1643470776027,24961.7634138,137
1643470776027,24961.763417,120
1643470776027,24961.763422,75
1643470776027,24961.7634266,33
1643470776059,24961.7634305,9
1643470776059,24961.7634337,-26
1643470776059,24961.7634376,-59
1643470776059,24961.7634407,-66
1643470776059,24961.7634456,-68
1643470776059,24961.7634485,-87
1643470776059,24961.7634517,-89
1643470776059,24961.7634567,-87
1643470776059,24961.7634614,-108
1643470776059,24961.7634664,-116
1643470776092,24961.7634694,-97
1643470776092,24961.7634725,-85
1643470776092,24961.7634773,-75
1643470776092,24961.7634803,-68
1643470776092,24961.7634843,-63
1643470776092,24961.7634888,-61
1643470776092,24961.7634919,-54
1643470776092,24961.7634963,-54
1643470776092,24961.7634994,-56
1643470776092,24961.7635026,-44
1643470776126,24961.7635081,-23
1643470776126,24961.763511,-18
1643470776126,24961.7635142,-28
1643470776126,24961.763519,-28
1643470776470,24961.763523,-11
1643470776470,24961.763526,-7
1643470776470,24961.7635291,-18
1643470776470,24961.7635319,-26
1643470776470,24961.7635382,-14
1643470776470,24961.7635414,0
1643470776470,24961.7635445,7
1643470776470,24961.7635476,9
1643470776470,24961.7635506,4
1643470776470,24961.7635537,9
1643470776492,24961.7635568,28
1643470776492,24961.7635598,35
1643470776492,24961.7635628,30
1643470776492,24961.7635659,42
1643470776492,24961.7635688,47
1643470776492,24962.3616427,33
1643470776492,24962.3616873,23
1643470776492,24962.3616965,7
1643470776492,24962.3617012,-16
1643470776492,24962.3617062,-14
1643470776515,24962.3617112,7
1643470776515,24962.3617143,2
1643470776515,24962.3617172,-21
1643470776515,24962.3617202,-30
1643470776515,24962.3617231,-23
1643470776515,24962.361726,-66
1643470776515,24962.3617288,-97
1643470776515,24962.3617318,156
1643470776515,24962.3617346,795
1643470776515,24962.3617377,1311
1643470776536,24962.3617408,935
1643470776536,24962.361745,-14
1643470776536,24962.3617481,-355
1643470776536,24962.3617512,-146
1643470776536,24962.3617542,-134
1643470776536,24962.3617573,-165
1643470776536,24962.3617627,-59
1643470776536,24962.3617656,-42
1643470776536,24962.3617687,-89
1643470776536,24962.3617718,-71
1643470776558,24962.3617748,-47
1643470776558,24962.361779,-56
1643470776558,24962.361782,-42
1643470776558,24962.361785,-9
1643470776558,24962.361788,0
1643470776558,24962.3617922,7
1643470776558,24962.3617952,28
1643470776558,24962.3617994,35
1643470776558,24962.3618025,18
1643470776558,24962.3618055,23
1643470776582,24962.3618105,61
1643470776582,24962.3618134,75
1643470776582,24962.3618165,85
1643470776582,24962.3618198,127
1643470776582,24962.3618244,168
1643470776582,24962.3618275,172
1643470776582,24962.3618317,139
1643470776582,24962.3618348,120
1643470776582,24962.3618378,144
1643470776582,24962.3618409,142
1643470776603,24962.3618439,111
1643470776603,24962.3618488,80
1643470776603,24962.3618517,52
1643470776603,24962.3618547,16
1643470776603,24962.3618578,-9
1643470776603,24962.3618609,-23
1643470776603,24962.3618639,-23
1643470776603,24962.3618689,-16
1643470776603,24962.3618718,-21
1643470776603,24962.3618749,-42
1643470776626,24962.36188,-56
1643470776626,24962.3618831,-52
1643470776626,24962.3618879,-28
1643470776626,24962.3618928,-26
1643470776982,24962.3618968,-42
1643470776982,24962.3618998,-44
1643470776982,24962.3619027,-42
1643470776982,24962.3619056,-37
1643470776982,24962.3619084,-28
1643470776982,24962.3619113,-11
1643470776982,24962.3619141,-9
1643470776982,24962.3619169,-26
1643470776982,24962.3619196,-28
1643470776982,24962.3619225,-9
1643470777004,24962.3619253,-9
1643470777004,24962.3619282,-23
1643470777004,24962.361931,-18
1643470777004,24962.3619339,0
1643470777004,24962.864185,2
1643470777004,24962.8642007,-16
1643470777004,24962.8642175,-21
1643470777004,24962.864288,-2
1643470777004,24962.8642969,4
1643470777004,24962.8643001,-4
1643470777032,24962.8643645,-18
1643470777032,24962.8643723,-16
1643470777032,24962.8644202,14
1643470777032,24962.8644326,30
1643470777032,24962.8644399,18
1643470777032,24962.8644571,26
1643470777032,24962.8644621,37
1643470777032,24962.8644651,14
1643470777032,24962.8644683,-2
1643470777032,24962.8644714,-9
1643470777062,24962.8644779,-42
1643470777062,24962.864481,-52
1643470777062,24962.864484,-16
1643470777062,24962.864488,-11
1643470777062,24962.864491,-35
1643470777062,24962.8644939,-11
1643470777062,24962.864497,9
1643470777062,24962.8645,-54
1643470777062,24962.864513,-75
1643470777062,24962.8645165,222
1643470777083,24962.8645218,843
1643470777083,24962.8645268,1221
1643470777083,24962.8645325,722
1643470777083,24962.8645358,-137
1643470777083,24962.8645387,-317
1643470777083,24962.8645425,-116
1643470777083,24962.8645478,-149
1643470777083,24962.8645512,-158
1643470777083,24962.8645551,-63
1643470777083,24962.86456,-61
1643470777103,24962.8645632,-63
1643470777103,24962.8645662,-23
1643470777103,24962.8645694,-16
1643470777103,24962.8645753,-11
1643470777103,24962.8645784,-2
1643470777103,24962.8645827,-9
1643470777103,24962.8645857,4
1643470777103,24962.8645886,37
1643470777103,24962.8645916,61
1643470777103,24962.8645945,59
1643470777123,24962.8645974,47
1643470777123,24962.8646003,73
1643470777123,24962.8646031,108
1643470777123,24962.864606,106
1643470777123,24962.8646089,92
1643470777123,24962.8646118,111
1643470777123,24962.8646146,130
1643470777123,24962.8646175,127
1643470777123,24962.8646204,127
1643470777123,24962.8646233,130
1643470777144,24962.8646262,111
1643470777144,24962.8646291,71
1643470777144,24962.864632,52
1643470777144,24962.8646358,49
1643470777615,24962.8646388,30
1643470777615,24962.8646416,11
1643470777615,24962.8646446,7
1643470777615,24962.8646474,7
1643470777615,24962.8646504,-11
1643470777615,24962.8646533,-47
1643470777615,24962.864657,-63
1643470777615,24962.8646609,-42
1643470777615,24962.864664,-23
1643470777615,24962.8646669,-35
1643470777651,24962.8646699,-54
1643470777651,24962.8646729,-44
1643470777651,24962.8646764,-9
1643470777651,24963.5101443,-21
1643470777651,24963.510156,-68
1643470777651,24963.5101595,-52
1643470777651,24963.5101625,-11
1643470777651,24963.5101654,-26
1643470777651,24963.5101682,-63
1643470777651,24963.510171,-68
1643470777682,24963.5101738,-59
1643470777682,24963.5101767,-40
1643470777682,24963.5101801,-21
1643470777682,24963.5101836,-42
1643470777682,24963.5101865,-63
1643470777682,24963.5101894,-47
1643470777682,24963.5101923,-35
1643470777682,24963.5101951,-23
1643470777682,24963.5101979,-16
1643470777682,24963.5102007,-49
1643470777716,24963.5102035,-80
1643470777716,24963.5102064,-80
1643470777716,24963.5102095,-54
1643470777716,24963.5102134,-18
1643470777716,24963.5102163,4
1643470777716,24963.5102191,4
1643470777716,24963.5102219,18
1643470777716,24963.5102248,37
1643470777716,24963.5102277,18
1643470777716,24963.5102305,-4
1643470777749,24963.5102334,-9
1643470777749,24963.5102362,-14
1643470777749,24963.510239,-11
1643470777749,24963.5102419,-4
1643470777749,24963.5102447,-16
1643470777749,24963.5102481,-23
1643470777749,24963.5102509,2
1643470777749,24963.5102537,18
1643470777749,24963.5102566,-2
1643470777749,24963.5102593,-49
1643470777783,24963.5102621,9
1643470777783,24963.510265,386
1643470777783,24963.5102679,975
1643470777783,24963.5102707,1096
1643470777783,24963.5102734,393
1643470777783,24963.5102762,-269
1643470777783,24963.5102798,-239
1643470777783,24963.5102826,-125
1643470777783,24963.5102854,-203
1643470777783,24963.5102883,-165
1643470777816,24963.510291,-104
1643470777816,24963.5102938,-120
1643470777816,24963.5102966,-78
1643470777816,24963.5102994,-23
1643470777816,24963.5103026,-47
1643470777816,24963.5103057,-68
1643470777816,24963.5103085,-56
1643470777816,24963.5103117,-35
1643470777816,24963.5103145,9
1643470777816,24963.5103172,28
1643470777848,24963.51032,26
1643470777848,24963.5103228,40
1643470777848,24963.5103256,47
1643470777848,24963.5103287,56
1643470778129,24963.5103315,78
1643470778129,24963.5103343,80
1643470778129,24963.5103371,92
1643470778129,24963.5103399,108
1643470778129,24963.5103427,92
1643470778129,24963.5103458,87
1643470778129,24963.5103485,118
1643470778129,24963.5103512,101
1643470778129,24963.5103541,59
1643470778129,24963.5103569,61
1643470778147,24963.5103597,42
1643470778147,24963.5103626,14
1643470778147,24964.0131027,42
1643470778147,24964.0131151,68
1643470778147,24964.0131187,23
1643470778147,24964.0131219,-59
1643470778147,24964.0131249,-108
1643470778147,24964.013128,-94
1643470778147,24964.0131322,-71
1643470778147,24964.0131353,-68
1643470778169,24964.0131384,-49
1643470778169,24964.0131416,-23
1643470778169,24964.0131644,-33
1643470778169,24964.0131705,-59
1643470778169,24964.0131737,-61
1643470778169,24964.0131788,-52
1643470778169,24964.0131819,-66
1643470778169,24964.0131849,-66
1643470778169,24964.0131879,-9
1643470778169,24964.013191,16
1643470778193,24964.013194,-28
1643470778193,24964.0131972,-52
1643470778193,24964.013202,-47
1643470778193,24964.0132051,-56
1643470778193,24964.01321,-85
1643470778193,24964.0132134,-78
1643470778193,24964.0132183,-26
1643470778193,24964.0132213,-11
1643470778193,24964.0132244,-37
1643470778193,24964.0132296,-21
1643470778220,24964.0132328,-9
1643470778220,24964.0132376,-47
1643470778220,24964.0132406,-44
1643470778220,24964.0132457,-16
1643470778220,24964.0132488,-26
1643470778220,24964.0132541,-28
1643470778220,24964.0132572,14
1643470778220,24964.0132603,63
1643470778220,24964.0132646,42
1643470778220,24964.0132675,-14
1643470778239,24964.0132703,-28
1643470778239,24964.0132732,-16
1643470778239,24964.0132892,-16
1643470778239,24964.0132987,-2
1643470778239,24964.0133033,-4
1643470778239,24964.0133085,-18
1643470778239,24964.0133119,-18
1643470778239,24964.013315,-49
1643470778239,24964.013318,-73
1643470778239,24964.013321,-23
1643470778260,24964.0133239,2
1643470778260,24964.0133271,-44
1643470778260,24964.0133301,9
1643470778260,24964.0133331,414
1643470778260,24964.0133361,989
1643470778260,24964.013339,980
1643470778260,24964.013342,229
1643470778260,24964.0133449,-272
1643470778260,24964.013348,-149
1643470778260,24964.013351,-82
1643470778281,24964.013354,-139
1643470778281,24964.013357,-63
1643470778281,24964.0133604,-52
1643470778281,24964.0133635,-97
1643470778730,24964.0133667,-63
1643470778730,24964.0133698,-40
1643470778730,24964.0133728,-42
1643470778730,24964.0133759,-18
1643470778730,24964.0133789,0
1643470778730,24964.0133818,-2
1643470778730,24964.0133848,0
1643470778730,24964.0133877,16
1643470778730,24964.013391,14
1643470778730,24964.0133939,-4
1643470778752,24964.0133968,7
1643470778752,24964.6163319,49
1643470778752,24964.6163477,71
1643470778752,24964.6163516,73
1643470778752,24964.6163571,80
1643470778752,24964.6163601,85
1643470778752,24964.6163636,97
1643470778752,24964.6163683,118
1643470778752,24964.6163723,108
1643470778752,24964.6163772,73
1643470778771,24964.6163801,44
1643470778771,24964.6163832,28
1643470778771,24964.616388,14
1643470778771,24964.6163924,0
1643470778771,24964.6163974,-23
1643470778771,24964.6164005,-80
1643470778771,24964.6164046,-99
1643470778771,24964.6164076,-44
1643470778771,24964.6164119,-37
1643470778771,24964.616415,-68
1643470778794,24964.616418,-61
1643470778794,24964.6164211,-66
1643470778794,24964.6164242,-73
1643470778794,24964.6164274,-49
1643470778794,24964.6164314,-35
1643470778794,24964.6164346,-37
1643470778794,24964.6164396,-21
1643470778794,24964.6164425,4
1643470778794,24964.6164455,0
1643470778794,24964.6164506,-21
1643470778816,24964.6164536,-28
1643470778816,24964.6164585,-21
1643470778816,24964.6164615,-23
1643470778816,24964.6164665,-26
1643470778816,24964.6164696,-18
1643470778816,24964.6164743,-18
1643470778816,24964.6164773,-23
1643470778816,24964.6164821,-23
1643470778816,24964.6164851,-16
1643470778816,24964.61649,-7
1643470778840,24964.6164931,-18
1643470778840,24964.6164983,-42
1643470778840,24964.6165013,-52
1643470778840,24964.6165062,-47
1643470778840,24964.6165093,-21
1643470778840,24964.6165141,0
1643470778840,24964.6165173,2
1643470778840,24964.6165224,11
1643470778840,24964.6165255,23
1643470778840,24964.6165303,23
1643470778862,24964.6165333,14
1643470778862,24964.6165382,7
1643470778862,24964.6165412,9
1643470778862,24964.6165459,18
1643470778862,24964.616549,0
1643470778862,24964.6165539,-21
1643470778862,24964.616557,-14
1643470778862,24964.616561,-9
1643470778862,24964.6165644,-21
1643470778862,24964.6165691,-26
1643470778886,24964.6165722,-26
1643470778886,24964.6165769,-16
1643470778886,24964.6165798,-16
1643470778886,24964.6165827,-47
1643470779482,24964.6165858,47
1643470779482,24964.616589,502
1643470779482,24964.6165919,1041
1643470779482,24964.6165949,902
1643470779482,24964.6165978,127
1643470779482,24964.6166006,-255
1643470779482,24964.6166035,-127
1643470779482,24964.6166064,-123
1643470779482,24964.6166093,-156
1643470779482,24964.6166121,-49
1643470779514,24965.3574174,-42
1643470779514,24965.3574305,-87
1643470779514,24965.357436,-49
1643470779514,24965.3574415,-28
1643470779514,24965.3574446,-33
1643470779514,24965.3574479,-9
1643470779514,24965.357452,-2
1643470779514,24965.3574551,0
1643470779514,24965.3574601,30
1643470779514,24965.3574631,28
1643470779548,24965.3574662,9
1643470779548,24965.3574712,23
1643470779548,24965.3574758,35
1643470779548,24965.3574807,21
1643470779548,24965.3574851,11
1643470779548,24965.35749,30
1643470779548,24965.3574947,52
1643470779548,24965.3574994,61
1643470779548,24965.3575025,61
1643470779548,24965.3575056,44
1643470779581,24965.3575103,30
1643470779581,24965.3575133,33
1643470779581,24965.3575164,35
1643470779581,24965.3575205,26
1643470779581,24965.3575238,9
1643470779581,24965.3575285,11
1643470779581,24965.3575366,14
1643470779581,24965.3575413,-14
1643470779581,24965.3575443,-47
1643470779581,24965.3575473,-44
1643470779615,24965.3575518,-18
1643470779615,24965.3575549,-35
1643470779615,24965.3575586,-73
1643470779615,24965.3575627,-71
1643470779615,24965.3575659,-42
1643470779615,24965.3575691,-33
1643470779615,24965.3575743,-42
1643470779615,24965.3575791,-40
1643470779615,24965.3575835,-11
1643470779615,24965.3575867,2
1643470779649,24965.3575912,-7
1643470779649,24965.3575956,-9
1643470779649,24965.357601,-4
1643470779649,24965.3576041,-11
1643470779649,24965.3576074,0
1643470779649,24965.3576124,16
1643470779649,24965.3576167,0
1643470779649,24965.357622,-14
1643470779649,24965.3576252,-18
1643470779649,24965.3576283,-16
1643470779683,24965.3576314,-7
1643470779683,24965.3576355,4
1643470779683,24965.3576387,9
1643470779683,24965.3576443,-11
1643470779683,24965.3576476,-30
1643470779683,24965.3576525,-16
1643470779683,24965.3576555,0
1643470779683,24965.3576587,-11
1643470779683,24965.3576629,-11
