unixTime,lslTime,ECG
1643450663910,4849.4177411,-38
1643450663910,4849.417756,-23
1643450663910,4849.4177599,-23
1643450663910,4849.4177631,-14
1643450663910,4849.4177664,0
1643450663910,4849.4177695,11
1643450663910,4849.4177726,23
1643450663910,4849.4177757,33
1643450663910,4849.4177788,49
1643450663910,4849.4177819,66
1643450663933,4849.417785,78
1643450663933,4849.417788,87
1643450663933,4849.4177911,102
1643450663933,4849.4177941,123
1643450663933,4849.4177972,142
1643450663933,4849.4178004,166
1643450663933,4849.4178035,194
1643450663933,4849.4178066,216
1643450663933,4849.4178097,237
1643450663933,4849.4178131,256
1643450663956,4849.4178161,263
1643450663956,4849.4178191,263
1643450663956,4849.4178222,266
1643450663956,4849.4178252,247
1643450663956,4849.4178287,187
1643450663956,4849.4178324,111
1643450663956,4849.4178369,38
1643450663956,4849.4178403,-26
1643450663956,4849.4178434,-83
1643450663956,4849.4178465,-123
1643450663978,4849.4178495,-140
1643450663978,4849.4178525,-142
1643450663978,4849.4178556,-149
1643450663978,4849.4178586,-154
1643450663978,4849.4178616,-147
1643450663978,4849.4178647,-142
1643450663978,4849.4178678,-140
1643450663978,4849.4178709,-133
1643450663978,4849.4178739,-125
1643450663978,4849.4178769,-121
1643450663999,4849.41788,-116
1643450663999,4849.4178834,-109
1643450663999,4849.4178865,-104
1643450663999,4849.4178896,-99
1643450663999,4849.4178927,-99
1643450663999,4849.4178958,-97
1643450663999,4849.4178989,-85
1643450663999,4849.4179019,-78
1643450663999,4849.4179049,-78
1643450663999,4849.417908,-78
1643450664021,4849.417911,-78
1643450664021,4849.4179141,-83
1643450664021,4849.4179172,-87
1643450664021,4849.4179202,-87
1643450664021,4849.4179233,-80
1643450664021,4849.4179264,-73
1643450664021,4849.4179295,-76
1643450664021,4849.4179325,-76
1643450664021,4849.4179356,-66
1643450664021,4849.4179386,-57
1643450664043,4849.4179417,-57
1643450664043,4849.4179448,-61
1643450664043,4849.4179478,-61
1643450664043,4849.4179509,-54
1643450664043,4849.417954,-47
1643450664043,4849.417957,-45
1643450664043,4849.4179601,-45
1643450664043,4849.4179631,-40
1643450664043,4849.4179662,-42
1643450664043,4849.4179695,-42
1643450664065,4849.4179725,-30
1643450664065,4849.4179757,-26
1643450664065,4849.4179789,-28
1643450664065,4849.9217077,-23
1643450664557,4849.9217209,-21
1643450664557,4849.9217248,-26
1643450664557,4849.921728,-26
1643450664557,4849.9217311,-26
1643450664557,4849.9217341,-28
1643450664557,4849.9217372,-30
1643450664557,4849.9217402,-26
1643450664557,4849.9217432,-23
1643450664557,4849.9217462,-40
1643450664557,4849.9217492,-57
1643450664578,4849.9217522,-49
1643450664578,4849.9217552,-45
1643450664578,4849.9217582,-49
1643450664578,4849.9217612,-47
1643450664578,4849.9217641,-54
1643450664578,4849.9217673,-71
1643450664578,4849.9217703,-80
1643450664578,4849.9217732,-83
1643450664578,4849.9217762,-64
1643450664578,4849.9217793,-14
1643450664603,4849.9217825,14
1643450664603,4849.921788,-9
1643450664603,4849.9217913,-28
1643450664603,4849.9217962,-16
1643450664603,4849.9218011,-14
1643450664603,4849.9218059,-21
1643450664603,4849.9218092,-16
1643450664603,4849.9218142,-7
1643450664603,4849.9218175,-9
1643450664603,4849.9218207,-4
1643450664622,4849.9218255,64
1643450664622,4849.9218293,342
1643450664622,4849.9218343,867
1643450664622,4849.9218382,1299
1643450664622,4849.921843,1157
1643450664622,4849.9218479,413
1643450664622,4849.9218531,-142
1643450664622,4849.9218563,-52
1643450664622,4849.9218613,45
1643450664622,4849.9218644,-92
1643450664643,4849.9218693,-99
1643450664643,4849.9218725,-38
1643450664643,4849.9218773,-64
1643450664643,4849.9218811,-76
1643450664643,4849.9218859,-42
1643450664643,4849.9218892,-33
1643450664643,4849.9218942,-26
1643450664643,4849.9218976,-4
1643450664643,4849.9219008,4
1643450664643,4849.9219057,9
1643450664666,4849.921909,26
1643450664666,4849.9219138,54
1643450664666,4849.9219169,71
1643450664666,4849.9219201,78
1643450664666,4849.9219251,90
1643450664666,4849.9219283,111
1643450664666,4849.9219332,137
1643450664666,4849.9219364,156
1643450664666,4849.9219412,178
1643450664666,4849.921945,209
1643450664691,4849.9219499,237
1643450664691,4849.9219531,259
1643450664691,4849.921958,285
1643450664691,4849.9219612,306
1643450664691,4849.9219662,313
1643450664691,4849.9219696,313
1643450664691,4849.9219746,297
1643450664691,4849.9219779,254
1643450664691,4849.9219829,185
1643450664691,4849.9219878,99
1643450664715,4849.9219932,19
1643450664715,4849.9219964,-40
1643450664715,4850.5687975,-92
1643450664715,4850.5688113,-128
1643450665023,4850.5688152,-147
1643450665023,4850.5688185,-156
1643450665023,4850.5688214,-161
1643450665023,4850.5688245,-159
1643450665023,4850.5688275,-156
1643450665023,4850.5688306,-163
1643450665023,4850.5688336,-178
1643450665023,4850.5688366,-185
1643450665023,4850.5688396,-171
1643450665023,4850.5688426,-152
1643450665055,4850.5688455,-147
1643450665055,4850.5688488,-144
1643450665055,4850.5688517,-140
1643450665055,4850.5688548,-130
1643450665055,4850.5688579,-121
1643450665055,4850.5688625,-114
1643450665055,4850.5688665,-111
1643450665055,4850.5688697,-109
1643450665055,4850.5688748,-99
1643450665055,4850.5688787,-97
1643450665088,4850.5688839,-97
1643450665088,4850.568887,-90
1643450665088,4850.5688902,-85
1643450665088,4850.5688934,-83
1643450665088,4850.5688984,-78
1643450665088,4850.5689032,-73
1643450665088,4850.5689081,-68
1643450665088,4850.5689113,-61
1643450665088,4850.5689161,-59
1643450665088,4850.5689209,-59
1643450665120,4850.5689257,-45
1643450665120,4850.5689289,-38
1643450665120,4850.5689337,-45
1643450665120,4850.5689369,-47
1643450665120,4850.5689418,-38
1643450665120,4850.5689466,-33
1643450665120,4850.5689514,-33
1643450665120,4850.5689561,-26
1643450665120,4850.5689612,-21
1643450665120,4850.5689651,-16
1643450665154,4850.56897,-9
1643450665154,4850.5689731,-11
1643450665154,4850.568978,-9
1643450665154,4850.5689816,0
1643450665154,4850.5689848,4
1643450665154,4850.5689901,2
1643450665154,4850.5689933,2
1643450665154,4850.5689983,9
1643450665154,4850.5690018,14
1643450665154,4850.5690059,14
1643450665189,4850.5690091,16
1643450665189,4850.569014,14
1643450665189,4850.5690172,2
1643450665189,4850.5690222,-9
1643450665189,4850.5690254,-11
1643450665189,4850.5690304,11
1643450665189,4850.5690339,61
1643450665189,4850.5690391,78
1643450665189,4850.5690424,47
1643450665189,4850.5690475,23
1643450665222,4850.5690513,23
1643450665222,4850.5690568,23
1643450665222,4850.5690601,21
1643450665222,4850.5690633,28
1643450665222,4850.5690678,30
1643450665222,4850.5690727,26
1643450665222,4850.5690758,28
1643450665222,4850.569079,97
1643450665222,4850.569084,387
1643450665222,4850.5690876,922
1643450665255,4850.5690925,1378
1643450665255,4851.0220085,1238
1643450665255,4851.0220222,458
1643450665255,4851.0220499,-118
1643450665622,4851.0220561,-30
1643450665622,4851.0220595,57
1643450665622,4851.0220627,-85
1643450665622,4851.022067,-92
1643450665622,4851.0220701,-33
1643450665622,4851.0220732,-57
1643450665622,4851.0220768,-59
1643450665622,4851.0220799,-23
1643450665622,4851.022083,-16
1643450665622,4851.0220861,-19
1643450665654,4851.0220892,-14
1643450665654,4851.0220923,-9
1643450665654,4851.0220954,4
1643450665654,4851.0220985,23
1643450665654,4851.0221016,33
1643450665654,4851.0221047,45
1643450665654,4851.0221078,57
1643450665654,4851.0221109,57
1643450665654,4851.022114,71
1643450665654,4851.0221171,99
1643450665677,4851.0221202,123
1643450665677,4851.0221233,144
1643450665677,4851.0221265,173
1643450665677,4851.0221302,201
1643450665677,4851.0221336,230
1643450665677,4851.0221394,254
1643450665677,4851.0221429,270
1643450665677,4851.0221482,278
1643450665677,4851.0221516,280
1643450665677,4851.0221569,268
1643450665699,4851.0221603,225
1643450665699,4851.0221656,163
1643450665699,4851.0221689,87
1643450665699,4851.0221722,4
1643450665699,4851.0221776,-61
1643450665699,4851.0221809,-102
1643450665699,4851.0221854,-128
1643450665699,4851.0221887,-140
1643450665699,4851.0221928,-142
1643450665699,4851.0221961,-137
1643450665720,4851.0221993,-137
1643450665720,4851.0222025,-140
1643450665720,4851.0222056,-135
1643450665720,4851.0222087,-128
1643450665720,4851.022212,-118
1643450665720,4851.0222161,-111
1643450665720,4851.0222194,-102
1643450665720,4851.0222233,-90
1643450665720,4851.0222266,-85
1643450665720,4851.0222306,-87
1643450665744,4851.0222338,-83
1643450665744,4851.0222378,-73
1643450665744,4851.0222411,-71
1643450665744,4851.022245,-80
1643450665744,4851.0222482,-78
1643450665744,4851.0222522,-68
1643450665744,4851.0222555,-68
1643450665744,4851.0222634,-71
1643450665744,4851.0222841,-59
1643450665744,4851.0222888,-49
1643450665767,4851.0222926,-54
1643450665767,4851.0222967,-54
1643450665767,4851.0222999,-49
1643450665767,4851.0223039,-49
1643450665767,4851.0223072,-49
1643450665767,4851.0223111,-47
1643450665767,4851.0223143,-35
1643450665767,4851.0223182,-21
1643450665767,4851.0223214,-23
1643450665767,4851.0223256,-30
1643450665790,4851.620589,-23
1643450665790,4851.6206013,-11
1643450665790,4851.6206334,-11
1643450665790,4851.6206402,-16
1643450666189,4851.6206435,-16
1643450666189,4851.6206469,-33
1643450666189,4851.6206499,-57
1643450666189,4851.6206529,-49
1643450666189,4851.6206559,-35
1643450666189,4851.6206589,-33
1643450666189,4851.6206618,-30
1643450666189,4851.6206657,-30
1643450666189,4851.6206688,-26
1643450666189,4851.6206717,-16
1643450666211,4851.6206748,-19
1643450666211,4851.6206779,-11
1643450666211,4851.6206809,-2
1643450666211,4851.6206838,-11
1643450666211,4851.6206868,-14
1643450666211,4851.6206897,-2
1643450666211,4851.6206927,-11
1643450666211,4851.6206957,-26
1643450666211,4851.6206986,-16
1643450666211,4851.6207055,-9
1643450666235,4851.6207098,-9
1643450666235,4851.6207131,11
1643450666235,4851.6207191,45
1643450666235,4851.6207221,59
1643450666235,4851.6207253,38
1643450666235,4851.6207302,14
1643450666235,4851.6207332,16
1643450666235,4851.6207364,30
1643450666235,4851.6207413,26
1643450666235,4851.6207453,26
1643450666256,4851.6207506,38
1643450666256,4851.6207538,40
1643450666256,4851.6207588,42
1643450666256,4851.620762,133
1643450666256,4851.6207668,446
1643450666256,4851.62077,964
1643450666256,4851.6207735,1356
1643450666256,4851.6207782,1133
1643450666256,4851.6207816,346
1643450666256,4851.6207865,-118
1643450666278,4851.6207898,16
1643450666278,4851.6207947,57
1643450666278,4851.6207986,-85
1643450666278,4851.6208034,-66
1643450666278,4851.6208065,-21
1643450666278,4851.6208096,-57
1643450666278,4851.6208145,-54
1643450666278,4851.6208176,-28
1643450666278,4851.6208226,-26
1643450666278,4851.6208258,-14
1643450666300,4851.6208308,4
1643450666300,4851.6208341,11
1643450666300,4851.620839,26
1643450666300,4851.6208423,40
1643450666300,4851.6208455,52
1643450666300,4851.6208503,71
1643450666300,4851.6208534,87
1643450666300,4851.6208582,102
1643450666300,4851.620862,118
1643450666300,4851.6208668,142
1643450666321,4851.6208704,171
1643450666321,4851.6208753,185
1643450666321,4851.6208791,204
1643450666321,4851.6208832,237
1643450666321,4851.6208864,282
1643450666321,4851.6208914,306
1643450666321,4851.6208953,311
1643450666321,4851.6209004,316
1643450666321,4851.6209037,327
1643450666321,4852.2160699,323
1643450666343,4852.2160855,280
1643450666343,4852.2160895,201
1643450666343,4852.2160952,114
1643450666343,4852.2160987,40
1643450666745,4852.2161041,-16
1643450666745,4852.2161074,-66
1643450666745,4852.2161105,-104
1643450666745,4852.2161136,-121
1643450666745,4852.2161167,-130
1643450666745,4852.2161198,-159
1643450666745,4852.2161228,-173
1643450666745,4852.2161259,-154
1643450666745,4852.2161615,-144
1643450666745,4852.2161664,-149
1643450666767,4852.2161696,-144
1643450666767,4852.2161728,-137
1643450666767,4852.2161759,-125
1643450666767,4852.2161791,-109
1643450666767,4852.2161824,-99
1643450666767,4852.2161879,-99
1643450666767,4852.2161913,-90
1643450666767,4852.2161965,-83
1643450666767,4852.2161998,-90
1643450666767,4852.2162051,-85
1643450666788,4852.2162084,-71
1643450666788,4852.2162137,-68
1643450666788,4852.216217,-68
1643450666788,4852.2162219,-61
1643450666788,4852.2162252,-64
1643450666788,4852.2162303,-66
1643450666788,4852.2162336,-54
1643450666788,4852.2162387,-49
1643450666788,4852.216242,-47
1643450666788,4852.216247,-47
1643450666811,4852.2162508,-52
1643450666811,4852.2162558,-52
1643450666811,4852.2162592,-42
1643450666811,4852.2162643,-35
1643450666811,4852.2162676,-40
1643450666811,4852.2162758,-47
1643450666811,4852.2162791,-52
1643450666811,4852.2162835,-52
1643450666811,4852.2162866,-40
1643450666811,4852.2162899,-35
1643450666833,4852.2162931,-40
1643450666833,4852.2162961,-30
1643450666833,4852.2162991,-21
1643450666833,4852.2163022,-26
1643450666833,4852.2163052,-26
1643450666833,4852.2163083,-14
1643450666833,4852.2163113,-9
1643450666833,4852.2163144,-9
1643450666833,4852.2163175,-9
1643450666833,4852.2163206,-11
1643450666855,4852.2163236,-4
1643450666855,4852.2163266,2
1643450666855,4852.2163298,0
1643450666855,4852.2163329,-2
1643450666855,4852.216336,0
1643450666855,4852.2163391,-7
1643450666855,4852.2163422,-21
1643450666855,4852.2163454,-21
1643450666855,4852.2163485,7
1643450666855,4852.2163515,49
1643450666877,4852.2163547,66
1643450666877,4852.2163579,42
1643450666877,4852.216361,16
1643450666877,4852.2163641,19
1643450666877,4852.2163672,26
1643450666877,4852.2163703,19
1643450666877,4852.2163734,21
1643450666877,4852.2163765,28
1643450666877,4852.7710273,26
1643450666877,4852.7710404,23
1643450666902,4852.7710458,97
1643450666902,4852.7710505,382
1643450666902,4852.7710538,886
1643450666902,4852.7710572,1306
1643450667411,4852.7711319,1152
1643450667411,4852.7711378,399
1643450667411,4852.7711416,-135
1643450667411,4852.7711625,-57
1643450667411,4852.7711667,7
1643450667411,4852.77117,-121
1643450667411,4852.7711731,-114
1643450667411,4852.7711763,-57
1643450667411,4852.7711793,-80
1643450667411,4852.7711824,-83
1643450667433,4852.7711855,-49
1643450667433,4852.7711886,-47
1643450667433,4852.7711927,-45
1643450667433,4852.7711961,-19
1643450667433,4852.771203,0
1643450667433,4852.7712065,2
1643450667433,4852.7712119,9
1643450667433,4852.7712153,33
1643450667433,4852.7712206,52
1643450667433,4852.771224,64
1643450667454,4852.7712292,78
1643450667454,4852.7712328,92
1643450667454,4852.7712381,111
1643450667454,4852.7712416,135
1643450667454,4852.7712471,159
1643450667454,4852.7712506,178
1643450667454,4852.7712558,206
1643450667454,4852.7712592,228
1643450667454,4852.7712645,240
1643450667454,4852.7712682,261
1643450667477,4852.7712743,278
1643450667477,4852.7712775,268
1643450667477,4852.771281,254
1643450667477,4852.7712865,232
1643450667477,4852.7712899,173
1643450667477,4852.771295,92
1643450667477,4852.7712984,26
1643450667477,4852.7713036,-35
1643450667477,4852.7713072,-97
1643450667477,4852.7713126,-121
1643450667499,4852.7713161,-128
1643450667499,4852.7713222,-149
1643450667499,4852.7713256,-152
1643450667499,4852.7713311,-137
1643450667499,4852.7713344,-137
1643450667499,4852.77134,-133
1643450667499,4852.7713435,-114
1643450667499,4852.7713489,-109
1643450667499,4852.7713525,-106
1643450667499,4852.7713579,-97
1643450667521,4852.7713627,-87
1643450667521,4852.7713662,-87
1643450667521,4852.7713718,-83
1643450667521,4852.7713752,-76
1643450667521,4852.7713808,-76
1643450667521,4852.7713844,-83
1643450667521,4852.7713912,-78
1643450667521,4852.7713969,-66
1643450667521,4852.7714029,-68
1643450667521,4852.7714066,-83
1643450667546,4852.7714121,-83
1643450667546,4852.7714155,-68
1643450667546,4852.7714218,-66
1643450667546,4852.7714253,-73
1643450667546,4852.7714309,-64
1643450667546,4852.7714351,-49
1643450667546,4852.7714408,-59
1643450667546,4853.4205796,-64
1643450667546,4853.4205927,-49
1643450667546,4853.420598,-52
1643450667566,4853.4206034,-54
1643450667566,4853.4206068,-45
1643450667566,4853.4206119,-40
1643450667566,4853.4206153,-40
1643450667944,4853.4206203,-38
1643450667944,4853.4206236,-38
1643450667944,4853.4206266,-33
1643450667944,4853.4206297,-28
1643450667944,4853.4206327,-26
1643450667944,4853.4206358,-26
1643450667944,4853.4206388,-38
1643450667944,4853.4206418,-61
1643450667944,4853.4206448,-66
1643450667944,4853.4206478,-49
1643450667966,4853.4206508,-42
1643450667966,4853.4206539,-42
1643450667966,4853.420657,-42
1643450667966,4853.42066,-42
1643450667966,4853.420663,-38
1643450667966,4853.420666,-35
1643450667966,4853.4206689,-47
1643450667966,4853.4206724,-54
1643450667966,4853.4206757,-61
1643450667966,4853.4206814,-61
1643450667988,4853.4206855,-30
1643450667988,4853.4206888,16
1643450667988,4853.4206939,16
1643450667988,4853.420697,-11
1643450667988,4853.4207003,-19
1643450667988,4853.4207055,-14
1643450667988,4853.4207105,-9
1643450667988,4853.4207154,-11
1643450667988,4853.4207187,-9
1643450667988,4853.4207237,4
1643450668012,4853.4207272,4
1643450668012,4853.4207321,9
1643450668012,4853.4207355,133
1643450668012,4853.4207409,501
1643450668012,4853.4207443,1026
1643450668012,4853.4207492,1318
1643450668012,4853.4207526,948
1643450668012,4853.4207576,163
1643450668012,4853.4207618,-147
1643450668012,4853.4207668,21
1643450668033,4853.4207701,7
1643450668033,4853.4207752,-114
1643450668033,4853.4207785,-64
1643450668033,4853.4207834,-23
1643450668033,4853.4207867,-57
1643450668033,4853.4207916,-47
1643450668033,4853.420795,-23
1643450668033,4853.4208001,-26
1643450668033,4853.4208035,-16
1643450668033,4853.4208084,0
1643450668054,4853.4208119,11
1643450668054,4853.4208169,28
1643450668054,4853.4208203,42
1643450668054,4853.4208252,57
1643450668054,4853.42083,73
1643450668054,4853.4208349,90
1643450668054,4853.4208389,102
1643450668054,4853.4208439,121
1643450668054,4853.4208473,144
1643450668054,4853.4208524,168
1643450668077,4853.4208558,194
1643450668077,4853.4208607,216
1643450668077,4853.420864,237
1643450668077,4853.4208691,268
1643450668077,4853.4208725,297
1643450668077,4853.420878,311
1643450668077,4853.968646,323
1643450668077,4853.9686609,325
1643450668077,4853.9686648,304
1643450668077,4853.968668,259
1643450668099,4853.9686713,192
1643450668099,4853.9686744,106
1643450668099,4853.9686774,14
1643450668099,4853.9686806,-47
1643450668499,4853.9686837,-78
1643450668499,4853.9686868,-99
1643450668499,4853.96869,-114
1643450668499,4853.9686931,-118
1643450668499,4853.9686962,-118
1643450668499,4853.9686992,-121
1643450668499,4853.9687022,-116
1643450668499,4853.9687052,-104
1643450668499,4853.9687082,-92
1643450668499,4853.968712,-87
1643450668523,4853.9687151,-97
1643450668523,4853.9687307,-104
1643450668523,4853.9687552,-87
1643450668523,4853.9687607,-76
1643450668523,4853.9687644,-78
1643450668523,4853.9687675,-73
1643450668523,4853.9687707,-73
1643450668523,4853.9687738,-95
1643450668523,4853.9687768,-114
1643450668523,4853.9687802,-104
1643450668544,4853.9687833,-97
1643450668544,4853.9687863,-102
1643450668544,4853.9687894,-102
1643450668544,4853.9687924,-104
1643450668544,4853.968796,-104
1643450668544,4853.968799,-97
1643450668544,4853.968802,-92
1643450668544,4853.968805,-92
1643450668544,4853.968808,-90
1643450668544,4853.968811,-90
1643450668566,4853.968814,-85
1643450668566,4853.968817,-76
1643450668566,4853.96882,-68
1643450668566,4853.968823,-64
1643450668566,4853.968826,-64
1643450668566,4853.9688291,-61
1643450668566,4853.9688321,-54
1643450668566,4853.9688379,-52
1643450668566,4853.9688426,-52
1643450668566,4853.9688483,-49
1643450668588,4853.9688534,-47
1643450668588,4853.9688568,-40
1643450668588,4853.9688609,-33
1643450668588,4853.9688643,-30
1643450668588,4853.9688948,-28
1643450668588,4853.9689004,-26
1643450668588,4853.9689039,-26
1643450668588,4853.9689075,-19
1643450668588,4853.9689105,-11
1643450668588,4853.9689134,-11
1643450668612,4853.9689164,-19
1643450668612,4853.9689194,-19
1643450668612,4853.9689224,-21
1643450668612,4853.9689254,-26
1643450668612,4853.9689284,-14
1643450668612,4853.9689315,16
1643450668612,4853.9689345,40
1643450668612,4853.9689376,40
1643450668612,4853.9689405,23
1643450668612,4853.9689439,14
1643450668644,4853.9689469,19
1643450668644,4853.9689499,19
1643450668644,4853.9689529,11
1643450668644,4853.968956,14
1643450668644,4853.9689591,16
1643450668644,4854.5151947,19
1643450668644,4854.5152085,30
1643450668644,4854.5152124,140
1643450668644,4854.5152181,477
1643450668644,4854.5152215,971
1643450668662,4854.5152248,1257
1643450668662,4854.5152307,933
1643450668662,4854.5152341,194
1643450668662,4854.5152392,-133
1643450669002,4854.5152426,23
1643450669002,4854.5152458,19
1643450669002,4854.5152489,-109
1643450669002,4854.5152519,-76
1643450669002,4854.515255,-35
1643450669002,4854.515258,-57
1643450669002,4854.5152611,-42
1643450669002,4854.5152641,-26
1643450669002,4854.5152671,-42
1643450669002,4854.5152732,-35
1643450669033,4854.5152766,-4
1643450669033,4854.5152797,4
1643450669033,4854.5152828,7
1643450669033,4854.5152858,23
1643450669033,4854.5152889,28
1643450669033,4854.5152919,21
1643450669033,4854.5152949,38
1643450669033,4854.5152979,68
1643450669033,4854.515301,90
1643450669033,4854.5153044,109
1643450669067,4854.5153074,128
1643450669067,4854.5153106,149
1643450669067,4854.5153136,185
1643450669067,4854.5153166,216
1643450669067,4854.5153197,240
1643450669067,4854.5153227,266
1643450669067,4854.5153259,285
1643450669067,4854.515329,282
1643450669067,4854.515332,285
1643450669067,4854.515335,280
1643450669098,4854.5153381,237
1643450669098,4854.5153416,163
1643450669098,4854.5153447,85
1643450669098,4854.5153477,9
1643450669098,4854.5153508,-54
1643450669098,4854.515354,-95
1643450669098,4854.515357,-114
1643450669098,4854.5153601,-125
1643450669098,4854.5153631,-128
1643450669098,4854.5153663,-125
1643450669131,4854.5153693,-121
1643450669131,4854.5153724,-111
1643450669131,4854.5153755,-104
1643450669131,4854.5153785,-95
1643450669131,4854.5153815,-85
1643450669131,4854.5153846,-78
1643450669131,4854.5153876,-78
1643450669131,4854.5153907,-73
1643450669131,4854.5153937,-64
1643450669131,4854.5153968,-57
1643450669165,4854.5153999,-57
1643450669165,4854.5154029,-59
1643450669165,4854.5154059,-52
1643450669165,4854.5154091,-49
1643450669165,4854.5154121,-52
1643450669165,4854.5154151,-49
1643450669165,4854.5154183,-47
1643450669165,4854.5154217,-52
1643450669165,4854.5154248,-57
1643450669165,4854.5154279,-61
1643450669200,4854.5154309,-66
1643450669200,4854.5154339,-66
1643450669200,4854.5154371,-59
1643450669200,4854.5154403,-59
1643450669200,4855.0193351,-59
1643450669200,4855.0193465,-52
1643450669200,4855.0194536,-49
1643450669200,4855.0194613,-54
1643450669200,4855.0194648,-59
1643450669200,4855.0194681,-59
1643450669235,4855.0194712,-52
1643450669235,4855.0194743,-47
1643450669235,4855.0194774,-52
1643450669235,4855.0194805,-54
1643450669499,4855.0194835,-54
1643450669499,4855.0194865,-52
1643450669499,4855.0194895,-49
1643450669499,4855.0194925,-45
1643450669499,4855.0194954,-42
1643450669499,4855.0194984,-49
1643450669499,4855.0195058,-66
1643450669499,4855.0195181,-66
1643450669499,4855.0195232,-52
1643450669499,4855.0195263,-49
1643450669533,4855.0195293,-52
1643450669533,4855.0195323,-57
1643450669533,4855.0195354,-66
1643450669533,4855.0195384,-66
1643450669533,4855.0195414,-42
1643450669533,4855.0195444,0
1643450669533,4855.0195474,21
1643450669533,4855.0195503,-9
1643450669533,4855.0195539,-42
1643450669533,4855.0195573,-33
1643450669554,4855.0195606,-16
1643450669554,4855.0195643,-21
1643450669554,4855.0195681,-19
1643450669554,4855.0195711,-9
1643450669554,4855.019574,-7
1643450669554,4855.019577,-11
1643450669554,4855.0195801,54
1643450669554,4855.0195831,330
1643450669554,4855.0195861,829
1643450669554,4855.0195891,1247
1643450669577,4855.0195921,1121
1643450669577,4855.0195951,399
1643450669577,4855.0195982,-142
1643450669577,4855.0196013,-61
1643450669577,4855.0196043,28
1643450669577,4855.0196074,-102
1643450669577,4855.0196104,-111
1643450669577,4855.0196134,-49
1643450669577,4855.0196164,-64
1643450669577,4855.0196193,-68
1643450669598,4855.0196225,-38
1643450669598,4855.0196268,-30
1643450669598,4855.0196298,-26
1643450669598,4855.0196328,-9
1643450669598,4855.0196358,2
1643450669598,4855.0196388,14
1643450669598,4855.0196418,33
1643450669598,4855.0196448,49
1643450669598,4855.0196524,59
1643450669598,4855.0196577,71
1643450669620,4855.0196608,90
1643450669620,4855.0196638,109
1643450669620,4855.0196668,128
1643450669620,4855.0196698,147
1643450669620,4855.0196729,173
1643450669620,4855.0196759,204
1643450669620,4855.0196789,232
1643450669620,4855.0196819,261
1643450669620,4855.0196849,289
1643450669620,4855.0196879,294
1643450669643,4855.0196909,289
1643450669643,4855.019694,297
1643450669643,4855.0196971,292
1643450669643,4855.5209419,251
1643450669643,4855.5209547,180
1643450669643,4855.5209583,99
1643450669643,4855.5209615,16
1643450669643,4855.5209647,-54
1643450669643,4855.5209677,-99
1643450669643,4855.5209707,-123
1643450669665,4855.5209737,-147
1643450669665,4855.5209767,-159
1643450669665,4855.5209797,-156
1643450669665,4855.5209827,-152
1643450670111,4855.5209858,-147
1643450670111,4855.5209888,-137
1643450670111,4855.5209919,-135
1643450670111,4855.520995,-152
1643450670111,4855.520998,-154
1643450670111,4855.5210011,-135
1643450670111,4855.5210166,-121
1643450670111,4855.5210203,-125
1643450670111,4855.5210234,-128
1643450670111,4855.5210264,-118
1643450670133,4855.5210294,-114
1643450670133,4855.5210324,-109
1643450670133,4855.5210353,-99
1643450670133,4855.5210384,-92
1643450670133,4855.5210414,-95
1643450670133,4855.5210443,-99
1643450670133,4855.5210473,-95
1643450670133,4855.5210503,-92
1643450670133,4855.5210533,-92
1643450670133,4855.5210562,-87
1643450670155,4855.5210592,-78
1643450670155,4855.5210621,-73
1643450670155,4855.5210651,-78
1643450670155,4855.5210685,-83
1643450670155,4855.5210714,-78
1643450670155,4855.5210745,-73
1643450670155,4855.5210776,-73
1643450670155,4855.5210806,-71
1643450670155,4855.5210835,-64
1643450670155,4855.5210865,-68
1643450670177,4855.5210895,-68
1643450670177,4855.5210924,-52
1643450670177,4855.5211436,-45
1643450670177,4855.5211498,-54
1643450670177,4855.5211533,-52
1643450670177,4855.5211565,-47
1643450670177,4855.5211595,-49
1643450670177,4855.5211626,-47
1643450670177,4855.5211656,-45
1643450670177,4855.5211687,-57
1643450670199,4855.5211717,-68
1643450670199,4855.5211747,-45
1643450670199,4855.521178,4
1643450670199,4855.5211811,21
1643450670199,4855.5211841,-7
1643450670199,4855.5211871,-26
1643450670199,4855.5211902,-16
1643450670199,4855.5211932,-9
1643450670199,4855.5211963,-14
1643450670199,4855.5211992,-14
1643450670221,4855.5212023,-9
1643450670221,4855.5212054,-11
1643450670221,4855.5212085,-11
1643450670221,4855.5212116,64
1643450670221,4855.5212146,370
1643450670221,4855.5212176,895
1643450670221,4855.5212207,1280
1643450670221,4855.5212237,1090
1643450670221,4855.5212268,344
1643450670221,4855.52123,-159
1643450670244,4855.521233,-42
1643450670244,4855.5212361,30
1643450670244,4856.1207083,-109
1643450670244,4856.1207217,-99
1643450670244,4856.1207256,-40
1643450670244,4856.1207289,-66
1643450670244,4856.1207332,-64
1643450670244,4856.1207366,-33
1643450670244,4856.1207418,-59
1643450670244,4856.1207466,-76
1643450670266,4856.1207516,-45
1643450670266,4856.120755,-35
1643450670266,4856.1207599,-40
1643450670266,4856.1207638,-9
1643450670798,4856.1207688,16
1643450670798,4856.120772,23
1643450670798,4856.1207751,38
1643450670798,4856.1207783,61
1643450670798,4856.1207814,83
1643450670798,4856.1207845,111
1643450670798,4856.1207876,140
1643450670798,4856.1207906,163
1643450670798,4856.1207937,190
1643450670798,4856.1207967,216
1643450670820,4856.1207998,244
1643450670820,4856.1208029,270
1643450670820,4856.120806,292
1643450670820,4856.1208091,301
1643450670820,4856.1208123,297
1643450670820,4856.1208157,278
1643450670820,4856.1208199,228
1643450670820,4856.1208243,152
1643450670820,4856.1208286,61
1643450670820,4856.1208319,-16
1643450670844,4856.1208363,-71
1643450670844,4856.1208405,-111
1643450670844,4856.1208439,-137
1643450670844,4856.1208491,-147
1643450670844,4856.1208538,-149
1643450670844,4856.1208588,-144
1643450670844,4856.1208619,-140
1643450670844,4856.1208652,-133
1643450670844,4856.1208701,-125
1643450670844,4856.1208748,-121
1643450670865,4856.1208796,-114
1643450670865,4856.1208829,-102
1643450670865,4856.1208879,-99
1643450670865,4856.1208919,-97
1643450670865,4856.1208968,-85
1643450670865,4856.1209003,-76
1643450670865,4856.1209054,-76
1643450670865,4856.1209104,-71
1643450670865,4856.1209154,-59
1643450670865,4856.1209188,-49
1643450670888,4856.1209266,-57
1643450670888,4856.12093,-61
1643450670888,4856.1209342,-61
1643450670888,4856.1209375,-59
1643450670888,4856.1209407,-59
1643450670888,4856.1209438,-61
1643450670888,4856.1209471,-54
1643450670888,4856.1209502,-47
1643450670888,4856.1209533,-42
1643450670888,4856.1209565,-45
1643450670909,4856.1209596,-47
1643450670909,4856.1209629,-42
1643450670909,4856.120966,-40
1643450670909,4856.1209693,-42
1643450670909,4856.1209726,-42
1643450670909,4856.1209758,-38
1643450670909,4856.1209789,-33
1643450670909,4856.1209819,-30
1643450670909,4856.120985,-33
1643450670909,4856.1209882,-30
1643450670931,4856.1209913,-30
1643450670931,4856.8185408,-42
1643450670931,4856.8185543,-59
1643450670931,4856.8185581,-71
1643450670931,4856.8185614,-78
1643450670931,4856.8185646,-68
1643450670931,4856.8185704,-28
1643450670931,4856.8185737,4
1643450670931,4856.8185789,-4
1643450670931,4856.8185821,-28
1643450670954,4856.8185872,-33
1643450670954,4856.8185911,-33
1643450670954,4856.818596,-54
1643450670954,4856.8185992,-68
1643450671198,4856.8186042,-57
1643450671198,4856.8186078,-49
1643450671198,4856.8186108,-54
1643450671198,4856.8186138,-19
1643450671198,4856.8186168,178
1643450671198,4856.8186199,646
1643450671198,4856.818623,1221
1643450671198,4856.818626,1385
1643450671198,4856.8186291,767
1643450671198,4856.8186322,-45
1643450671222,4856.8186352,-182
1643450671222,4856.8186381,-4
1643450671222,4856.8186411,-97
1643450671222,4856.8186441,-173
1643450671222,4856.818647,-99
1643450671222,4856.81865,-95
1643450671222,4856.8186532,-114
1643450671222,4856.8186584,-83
1643450671222,4856.8186619,-68
1643450671222,4856.818666,-78
1643450671244,4856.8186693,-61
1643450671244,4856.8186747,-42
1643450671244,4856.8186779,-35
1643450671244,4856.8186832,-19
1643450671244,4856.8186865,-2
1643450671244,4856.8186897,4
1643450671244,4856.8186953,19
1643450671244,4856.8186985,42
1643450671244,4856.8187037,61
1643450671244,4856.8187068,80
1643450671264,4856.81871,102
1643450671264,4856.8187149,128
1643450671264,4856.818718,154
1643450671264,4856.8187213,180
1643450671264,4856.8187257,204
1643450671264,4856.8187291,228
1643450671264,4856.8187341,247
1643450671264,4856.8187374,256
1643450671264,4856.8187426,259
1643450671264,4856.8187459,251
1643450671287,4856.8187516,220
1643450671287,4856.8187549,159
1643450671287,4856.8187601,73
1643450671287,4856.8187634,-11
1643450671287,4856.8187685,-71
1643450671287,4856.8187717,-106
1643450671287,4856.8187769,-130
1643450671287,4856.8187802,-144
1643450671287,4856.8187845,-144
1643450671287,4856.8187892,-140
1643450671311,4856.8187944,-137
1643450671311,4856.818825,-135
1643450671311,4856.8188327,-125
1643450671311,4856.8188364,-118
1643450671311,4856.8188397,-114
1643450671311,4856.8188428,-104
1643450671311,4856.818846,-97
1643450671311,4856.8188512,-95
1643450671311,4856.8188546,-87
1643450671311,4856.8188579,-78
1643450671337,4857.2207658,-76
1643450671337,4857.220778,-71
1643450671337,4857.2207836,-61
1643450671337,4857.220787,-57
1643450671337,4857.2207911,-54
1643450671337,4857.2207943,-52
1643450671337,4857.2207974,-47
1643450671337,4857.2208002,-47
1643450671337,4857.220805,-47
1643450671337,4857.220808,-57
1643450671359,4857.2208137,-64
1643450671359,4857.220817,-57
1643450671359,4857.2208218,-49
1643450671359,4857.2208248,-52
1643450671843,4857.2208279,-47
1643450671843,4857.2208308,-42
1643450671843,4857.2208337,-52
1643450671843,4857.2208366,-57
1643450671843,4857.2208394,-45
1643450671843,4857.2208422,-40
1643450671843,4857.2208451,-40
1643450671843,4857.220848,-33
1643450671843,4857.2208509,-28
1643450671843,4857.2208538,-30
1643450671864,4857.2208566,-30
1643450671864,4857.2208595,-28
1643450671864,4857.2208624,-28
1643450671864,4857.2208653,-28
1643450671864,4857.2208682,-33
1643450671864,4857.220871,-57
1643450671864,4857.2208739,-78
1643450671864,4857.2208768,-73
1643450671864,4857.2208797,-38
1643450671864,4857.2208827,7
1643450671888,4857.220933,9
1643450671888,4857.221071,-21
1643450671888,4857.2210745,-30
1643450671888,4857.2210775,-21
1643450671888,4857.2210804,-28
1643450671888,4857.2210833,-40
1643450671888,4857.2210862,-28
1643450671888,4857.221089,-19
1643450671888,4857.2210919,-26
1643450671888,4857.2210948,-19
1643450671910,4857.2210978,85
1643450671910,4857.2211008,425
1643450671910,4857.2211036,981
1643450671910,4857.2211065,1378
1643450671910,4857.2211093,1119
1643450671910,4857.2211122,297
1643450671910,4857.221115,-190
1643450671910,4857.2211179,-49
1643450671910,4857.2211208,0
1643450671910,4857.2211238,-137
1643450671933,4857.2211266,-111
1643450671933,4857.2211294,-64
1643450671933,4857.2211323,-97
1643450671933,4857.2211352,-90
1643450671933,4857.221138,-54
1643450671933,4857.2211409,-47
1643450671933,4857.2211437,-45
1643450671933,4857.2211466,-30
1643450671933,4857.2211495,-19
1643450671933,4857.2211523,-4
1643450671954,4857.2211552,14
1643450671954,4857.221158,28
1643450671954,4857.2211609,42
1643450671954,4857.2211637,59
1643450671954,4857.2211666,73
1643450671954,4857.2211694,90
1643450671954,4857.2211723,116
1643450671954,4857.2211751,144
1643450671954,4857.221178,171
1643450671954,4857.8720219,192
1643450671976,4857.8720337,213
1643450671976,4857.8720858,244
1643450671976,4857.87209,275
1643450671976,4857.872093,297
1643450671976,4857.8720958,304
1643450671976,4857.8720986,292
1643450671976,4857.8721031,247
1643450671976,4857.872106,168
1643450671976,4857.8721088,83
1643450671976,4857.8721117,19
1643450671998,4857.872115,-40
1643450671998,4857.8721183,-99
1643450671998,4857.8721211,-128
1643450671998,4857.872124,-142
1643450672384,4857.8721268,-159
1643450672384,4857.8721296,-159
1643450672384,4857.8721325,-152
1643450672384,4857.8721594,-149
1643450672384,4857.8722181,-140
1643450672384,4857.872222,-123
1643450672384,4857.8722249,-109
1643450672384,4857.8722278,-102
1643450672384,4857.8722307,-97
1643450672384,4857.8722335,-95
1643450672403,4857.8722363,-87
1643450672403,4857.8722392,-78
1643450672403,4857.872242,-73
1643450672403,4857.8722476,-64
1643450672403,4857.8722505,-64
1643450672403,4857.8722533,-78
1643450672403,4857.8722561,-66
1643450672403,4857.8722589,-47
1643450672403,4857.8722629,-61
1643450672403,4857.872266,-71
1643450672423,4857.8722688,-57
1643450672423,4857.8722716,-57
1643450672423,4857.8722744,-52
1643450672423,4857.8722772,-33
1643450672423,4857.8722801,-28
1643450672423,4857.8722829,-38
1643450672423,4857.8722857,-45
1643450672423,4857.8722885,-38
1643450672423,4857.8722913,-28
1643450672423,4857.8722942,-33
1643450672445,4857.872297,-35
1643450672445,4857.8723,-33
1643450672445,4857.8723029,-33
1643450672445,4857.8723056,-30
1643450672445,4857.8723084,-19
1643450672445,4857.8723112,-7
1643450672445,4857.8723141,-9
1643450672445,4857.872317,-9
1643450672445,4857.8723198,0
1643450672445,4857.8723227,2
1643450672466,4857.8723255,4
1643450672466,4857.8723283,7
1643450672466,4857.8723311,4
1643450672466,4857.8723339,7
1643450672466,4857.872339,11
1643450672466,4857.8723422,-2
1643450672466,4857.8723467,-19
1643450672466,4857.8723511,-14
1643450672466,4857.8723542,-4
1643450672466,4857.87236,14
1643450672489,4857.872363,49
1643450672489,4857.8723661,54
1643450672489,4857.8723709,21
1643450672489,4857.872374,19
1643450672489,4857.8723769,42
1643450672489,4857.87238,38
1643450672489,4857.8723839,26
1643450672489,4857.872388,33
1643450672489,4858.4152165,35
1643450672489,4858.4152334,28
1643450672523,4858.4152377,30
1643450672523,4858.4152418,142
1643450672523,4858.4152448,532
1643450672523,4858.4152476,1123
1643450672523,4858.4152504,1459
1643450672523,4858.4152533,1076
1643450672523,4858.4152561,228
1643450672523,4858.41526,-156
1643450672523,4858.4152632,7
1643450672523,4858.4152662,7
1643450672555,4858.4152692,-125
1643450672555,4858.4152736,-90
1643450672555,4858.4152765,-52
1643450672555,4858.4152793,-73
1643450672855,4858.4152825,-57
1643450672855,4858.4152855,-35
1643450672855,4858.4152883,-47
1643450672855,4858.4152912,-57
1643450672855,4858.4152939,-61
1643450672855,4858.4152971,-54
1643450672855,4858.4152999,-30
1643450672855,4858.4153027,-21
1643450672855,4858.4153063,4
1643450672855,4858.4153095,45
1643450672888,4858.4153123,26
1643450672888,4858.4153151,2
1643450672888,4858.4153179,47
1643450672888,4858.4153207,87
1643450672888,4858.4153235,97
1643450672888,4858.4153263,123
1643450672888,4858.4153294,161
1643450672888,4858.4153322,182
1643450672888,4858.415335,204
1643450672888,4858.415338,235
1643450672921,4858.4153409,256
1643450672921,4858.4153438,261
1643450672921,4858.4153467,247
1643450672921,4858.4153495,225
1643450672921,4858.4153522,185
1643450672921,4858.415355,121
1643450672921,4858.4153578,42
1643450672921,4858.4153608,-28
1643450672921,4858.4153636,-71
1643450672921,4858.4153671,-95
1643450672954,4858.4153699,-123
1643450672954,4858.4153727,-142
1643450672954,4858.4153756,-135
1643450672954,4858.4153784,-130
1643450672954,4858.4153813,-125
1643450672954,4858.4153841,-123
1643450672954,4858.415387,-121
1643450672954,4858.4153898,-97
1643450672954,4858.4153926,-71
1643450672954,4858.4153954,-78
1643450672989,4858.4153986,-73
1643450672989,4858.4154018,-49
1643450672989,4858.4154045,-59
1643450672989,4858.4154073,-76
1643450672989,4858.4154102,-52
1643450672989,4858.4154129,-38
1643450672989,4858.4154157,-64
1643450672989,4858.4154185,-64
1643450672989,4858.4154213,-40
1643450672989,4858.4154242,-45
1643450673021,4858.4154269,-47
1643450673021,4858.4154302,-30
1643450673021,4858.4154336,-23
1643450673021,4858.4154364,-33
1643450673021,4858.4154392,-38
1643450673021,4858.415442,-35
1643450673021,4858.4154448,-40
1643450673021,4858.8706267,-33
1643450673021,4858.8706428,-19
1643450673021,4858.8706485,-19
1643450673054,4858.8706542,-14
1643450673054,4858.8706571,-4
1643450673054,4858.8706603,-7
1643450673054,4858.8706653,-14
1643450673054,4858.8706682,-21
1643450673054,4858.8706713,-16
1643450673054,4858.8706754,-2
1643450673054,4858.8706788,0
1643450673054,4858.8706836,-14
1643450673054,4858.8706865,-30
1643450673089,4858.8706897,-33
1643450673089,4858.8706947,-23
1643450673089,4858.8706976,-23
1643450673089,4858.8707007,-28
1643450673499,4858.8707056,-26
1643450673499,4858.8707087,-30
1643450673499,4858.8707116,-33
1643450673499,4858.8707145,-16
1643450673499,4858.8707174,-7
1643450673499,4858.8707202,-16
1643450673499,4858.8707233,-26
1643450673499,4858.8707262,-33
1643450673499,4858.8707294,-42
1643450673499,4858.8707322,-45
1643450673520,4858.8707351,-21
1643450673520,4858.870738,21
1643450673520,4858.8707408,38
1643450673520,4858.8707437,16
1643450673520,4858.8707466,-7
1643450673520,4858.8707494,-4
1643450673520,4858.8707524,2
1643450673520,4858.8707553,0
1643450673520,4858.8707581,4
1643450673520,4858.870761,16
1643450673544,4858.8707638,7
1643450673544,4858.8707667,-9
1643450673544,4858.8707696,38
1643450673544,4858.8707725,270
1643450673544,4858.8707753,765
1643450673544,4858.8707783,1280
1643450673544,4858.8707811,1311
1643450673544,4858.870784,627
1643450673544,4858.8707871,-80
1643450673544,4858.87079,-102
1643450673565,4858.8707928,49
1643450673565,4858.8707957,-71
1643450673565,4858.8707985,-121
1643450673565,4858.8708016,-47
1643450673565,4858.8708054,-57
1643450673565,4858.8708086,-78
1643450673565,4858.8708127,-42
1643450673565,4858.8708167,-28
1643450673565,4858.8708205,-33
1643450673565,4858.8708236,-11
1643450673590,4858.8708291,16
1643450673590,4858.8708323,19
1643450673590,4858.8708374,11
1643450673590,4858.8708404,26
1643450673590,4858.8708438,52
1643450673590,4858.8708469,71
1643450673590,4858.870852,80
1643450673590,4858.8708553,95
1643450673590,4858.8708604,118
1643450673590,4858.8708638,140
1643450673611,4858.870867,159
1643450673611,4858.8708719,182
1643450673611,4858.8708759,211
1643450673611,4858.8708791,230
1643450673611,4858.8708834,247
1643450673611,4858.8708865,268
1643450673611,4859.5178759,280
1643450673611,4859.5178865,285
1643450673611,4859.5178898,275
1643450673611,4859.5178927,240
1643450673632,4859.5178955,161
1643450673632,4859.5178983,76
1643450673632,4859.5179012,11
1643450673632,4859.5179041,-45
1643450673632,4859.5179069,-102
1643450673632,4859.5179098,-135
1643450673632,4859.5179136,-147
1643450673632,4859.5179177,-154
1643450673632,4859.5179208,-152
1643450673632,4859.5179237,-142
1643450673656,4859.5179266,-133
1643450673656,4859.5179296,-118
1643450673656,4859.5179325,-109
1643450673656,4859.5179355,-104
1643450674011,4859.5179401,-95
1643450674011,4859.517943,-87
1643450674011,4859.5179459,-90
1643450674011,4859.5179487,-85
1643450674011,4859.5179703,-73
1643450674011,4859.5179779,-71
1643450674011,4859.5179814,-68
1643450674011,4859.5179844,-59
1643450674011,4859.5179873,-59
1643450674011,4859.5179902,-61
1643450674033,4859.5179931,-52
1643450674033,4859.5179959,-45
1643450674033,4859.5179988,-49
1643450674033,4859.5180017,-54
1643450674033,4859.5180084,-49
1643450674033,4859.5180117,-42
1643450674033,4859.5180146,-35
1643450674033,4859.5180175,-30
1643450674033,4859.5180203,-21
1643450674033,4859.5180232,-16
1643450674054,4859.518026,-26
1643450674054,4859.5180288,-40
1643450674054,4859.5180317,-30
1643450674054,4859.5180345,-16
1643450674054,4859.5180373,-11
1643450674054,4859.5180401,-4
1643450674054,4859.518043,-2
1643450674054,4859.5180458,-4
1643450674054,4859.5180487,0
1643450674054,4859.5180517,2
1643450674077,4859.5180546,0
1643450674077,4859.5180575,2
1643450674077,4859.5180603,7
1643450674077,4859.5180633,-2
1643450674077,4859.5180662,-4
1643450674077,4859.5180691,4
1643450674077,4859.518072,0
1643450674077,4859.5180748,0
1643450674077,4859.5180776,9
1643450674077,4859.5180805,9
1643450674099,4859.5180834,9
1643450674099,4859.5180863,19
1643450674099,4859.5180891,23
1643450674099,4859.518092,11
1643450674099,4859.5180949,2
1643450674099,4859.5180978,2
1643450674099,4859.5181006,-7
1643450674099,4859.5181035,-14
1643450674099,4859.5181064,-16
1643450674099,4859.5181092,-16
1643450674121,4859.5181121,4
1643450674121,4859.5181151,54
1643450674121,4859.518118,66
1643450674121,4859.5181209,30
1643450674121,4859.5181238,14
1643450674121,4860.0205815,19
1643450674121,4860.0205956,7
1643450674121,4860.0206009,0
1643450674121,4860.0206062,19
1643450674121,4860.0206093,26
1643450674144,4860.0206125,19
1643450674144,4860.0206174,23
1643450674144,4860.0206203,68
1643450674144,4860.0206236,275
1643450674144,4860.0206284,739
1643450674144,4860.0206314,1228
1643450674144,4860.0206346,1242
1643450674144,4860.0206388,577
1643450674144,4860.020643,-87
1643450674144,4860.0206461,-102
1643450674165,4860.0206502,21
1643450674165,4860.0206553,-102
1643450674165,4860.0206584,-137
1643450674165,4860.0206615,-66
1643450674746,4860.0207397,-78
1643450674746,4860.0207453,-92
1643450674746,4860.0207488,-64
1643450674746,4860.0207519,-49
1643450674746,4860.0207549,-45
1643450674746,4860.0207579,-26
1643450674746,4860.0207609,-11
1643450674746,4860.0207638,-2
1643450674746,4860.0207668,11
1643450674746,4860.0207698,28
1643450674766,4860.0207727,42
1643450674766,4860.0207757,61
1643450674766,4860.0207787,80
1643450674766,4860.0207816,97
1643450674766,4860.0207852,114
1643450674766,4860.0207883,133
1643450674766,4860.020794,159
1643450674766,4860.0207973,180
1643450674766,4860.0208266,201
1643450674766,4860.0208342,225
1643450674787,4860.0208373,251
1643450674787,4860.0208404,266
1643450674787,4860.0208434,273
1643450674787,4860.0208469,275
1643450674787,4860.0208498,268
1643450674787,4860.0208527,247
1643450674787,4860.0208558,206
1643450674787,4860.0208587,140
1643450674787,4860.0208616,66
1643450674787,4860.0208646,2
1643450674813,4860.0208679,-45
1643450674813,4860.0208708,-80
1643450674813,4860.0208738,-104
1643450674813,4860.0208767,-106
1643450674813,4860.0208797,-104
1643450674813,4860.0208826,-102
1643450674813,4860.0208855,-95
1643450674813,4860.0208885,-87
1643450674813,4860.0208914,-80
1643450674813,4860.0208943,-71
1643450674834,4860.0211034,-59
1643450674834,4860.0211549,-52
1643450674834,4860.0211733,-49
1643450674834,4860.0211784,-47
1643450674834,4860.0211921,-42
1643450674834,4860.0211967,-38
1643450674834,4860.0211997,-38
1643450674834,4860.0212028,-42
1643450674834,4860.0212057,-49
1643450674834,4860.0212087,-52
1643450674856,4860.0212116,-47
1643450674856,4860.0212146,-42
1643450674856,4860.0212176,-40
1643450674856,4860.0212205,-35
1643450674856,4860.7657187,-33
1643450674856,4860.7657334,-35
1643450674856,4860.7657372,-35
1643450674856,4860.7657435,-35
1643450674856,4860.7657477,-35
1643450674856,4860.7657538,-30
1643450674876,4860.7657569,-30
1643450674876,4860.765762,-52
1643450674876,4860.7657651,-78
1643450674876,4860.7657681,-66
1643450674876,4860.7657907,-47
1643450674876,4860.7658092,-47
1643450674876,4860.7658159,-47
1643450674876,4860.7658195,-47
1643450674876,4860.7658245,-52
1643450674876,4860.7658278,-45
1643450674899,4860.7658331,-38
1643450674899,4860.7658363,-42
1643450674899,4860.7658413,-42
1643450674899,4860.7658446,-35
1643450675145,4860.7658495,-33
1643450675145,4860.7658526,-30
1643450675145,4860.7658556,-26
1643450675145,4860.7659474,-26
1643450675145,4860.7659521,-21
1643450675145,4860.7659579,-14
1643450675145,4860.7659609,-19
1643450675145,4860.7659651,-30
1643450675145,4860.7659682,-33
1643450675145,4860.7659712,-30
1643450675165,4860.7659743,-19
1643450675165,4860.7659778,14
1643450675165,4860.7659827,47
1643450675165,4860.7659857,35
1643450675165,4860.7659889,0
1643450675165,4860.7659931,-2
1643450675165,4860.7659962,11
1643450675165,4860.7660012,4
1643450675165,4860.766005,4
1643450675165,4860.7660081,16
1643450675191,4860.7660112,16
1643450675191,4860.7660142,11
1643450675191,4860.7660174,40
1643450675191,4860.7660215,223
1643450675191,4860.7660248,658
1643450675191,4860.7660297,1150
1643450675191,4860.7660342,1245
1643450675191,4860.7660391,677
1643450675191,4860.7660427,-14
1643450675191,4860.7660458,-102
1643450675211,4860.7660497,49
1643450675211,4860.7660528,-47
1643450675211,4860.7660568,-109
1643450675211,4860.76606,-42
1643450675211,4860.7660651,-45
1643450675211,4860.766068,-66
1643450675211,4860.7660711,-38
1643450675211,4860.7660742,-26
1643450675211,4860.7660772,-35
1643450675211,4860.7660802,-28
1643450675231,4860.7660832,-9
1643450675231,4860.7660863,4
1643450675231,4860.7660893,11
1643450675231,4860.7660924,23
1643450675231,4860.7660954,49
1643450675231,4860.7660984,64
1643450675231,4860.7661028,66
1643450675231,4860.7661059,83
1643450675231,4860.7661111,106
1643450675231,4860.7661141,118
1643450675254,4860.7661172,137
1643450675254,4860.7661203,168
1643450675254,4860.7661233,192
1643450675254,4861.1707745,206
1643450675254,4861.1707866,228
1643450675254,4861.1707902,249
1643450675254,4861.1707934,256
1643450675254,4861.1707965,256
1643450675254,4861.1707994,249
1643450675254,4861.1708024,232
1643450675277,4861.1708054,194
1643450675277,4861.1708084,130
1643450675277,4861.1708113,52
1643450675277,4861.1708143,-19
1643450675277,4861.1708172,-71
1643450675277,4861.1708202,-116
1643450675277,4861.1708235,-144
1643450675277,4861.1708264,-149
1643450675277,4861.1708294,-152
1643450675277,4861.1708323,-149
1643450675298,4861.1708352,-135
1643450675298,4861.1708382,-133
1643450675298,4861.1708411,-142
1643450675298,4861.1708441,-137
1643450675699,4861.170847,-121
1643450675699,4861.1708505,-111
1643450675699,4861.1708535,-104
1643450675699,4861.1708564,-114
1643450675699,4861.1708593,-133
1643450675699,4861.1708623,-121
1643450675699,4861.1708652,-99
1643450675699,4861.1708682,-111
1643450675699,4861.170872,-114
1643450675699,4861.170875,-95
1643450675727,4861.170878,-95
1643450675727,4861.1708809,-109
1643450675727,4861.1708839,-106
1643450675727,4861.1708868,-106
1643450675727,4861.1708898,-106
1643450675727,4861.1708929,-97
1643450675727,4861.1708962,-92
1643450675727,4861.1708991,-90
1643450675727,4861.1709021,-87
1643450675727,4861.170905,-95
1643450675748,4861.1709079,-102
1643450675748,4861.1709109,-92
1643450675748,4861.1709139,-85
1643450675748,4861.1709174,-87
1643450675748,4861.1709205,-78
1643450675748,4861.1709234,-73
1643450675748,4861.1709265,-87
1643450675748,4861.1709304,-92
1643450675748,4861.1709334,-71
1643450675748,4861.1709366,-66
1643450675767,4861.1709396,-87
1643450675767,4861.1709426,-83
1643450675767,4861.1709456,-64
1643450675767,4861.1709485,-73
1643450675767,4861.1709514,-90
1643450675767,4861.1709543,-85
1643450675767,4861.1709572,-95
1643450675767,4861.1709606,-99
1643450675767,4861.1709635,-59
1643450675767,4861.1709665,-14
1643450675788,4861.1709694,-11
1643450675788,4861.1709723,-40
1643450675788,4861.1709757,-57
1643450675788,4861.1709787,-54
1643450675788,4861.1709816,-42
1643450675788,4861.1709845,-28
1643450675788,4861.1709874,-26
1643450675788,4861.1709904,-33
1643450675788,4861.1709934,-28
1643450675788,4861.1709969,-11
1643450675811,4861.1709999,106
1643450675811,4861.1710029,501
1643450675811,4861.7208597,1038
1643450675811,4861.7208749,1257
1643450675811,4861.7208788,824
1643450675811,4861.7208904,78
1643450675811,4861.7208937,-166
1643450675811,4861.7208987,9
1643450675811,4861.7209019,-28
1643450675811,4861.7209061,-135
1643450675832,4861.7210301,-76
1643450675832,4861.7210499,-52
1643450675832,4861.7210546,-97
1643450675832,4861.7210578,-97
1643450675832,4861.7210609,-83
1643450675832,4861.7210643,-78
1643450675832,4861.7210672,-59
1643450675832,4861.7210701,-42
1643450675832,4861.721073,-38
1643450675832,4861.721076,-21
1643450675854,4861.721079,0
1643450675854,4861.7210819,16
1643450675854,4861.7210848,35
1643450675854,4861.7210877,57
1643450676354,4861.7210906,78
1643450676354,4861.7210936,90
1643450676354,4861.7210966,99
1643450676354,4861.7210995,137
1643450676354,4861.7211024,173
1643450676354,4861.7211054,190
1643450676354,4861.7211083,216
1643450676354,4861.7211112,249
1643450676354,4861.7211142,268
1643450676354,4861.7211171,285
1643450676388,4861.7211201,301
1643450676388,4861.721123,285
1643450676388,4861.7211262,247
1643450676388,4861.7211293,197
1643450676388,4861.7211323,130
1643450676388,4861.7211357,47
1643450676388,4861.7211392,-33
1643450676388,4861.7211422,-85
1643450676388,4861.7211453,-109
1643450676388,4861.7211482,-128
1643450676421,4861.7211511,-147
1643450676421,4861.721154,-152
1643450676421,4861.7211568,-140
1643450676421,4861.7211599,-133
1643450676421,4861.7211628,-128
1643450676421,4861.7211657,-121
1643450676421,4861.7211686,-121
1643450676421,4861.7211719,-116
1643450676421,4861.7211748,-97
1643450676421,4861.7211779,-83
1643450676454,4861.7211809,-78
1643450676454,4861.7211839,-71
1643450676454,4861.7211868,-66
1643450676454,4861.7211897,-61
1643450676454,4861.7211926,-57
1643450676454,4861.7211955,-54
1643450676454,4861.7211985,-49
1643450676454,4861.7212014,-45
1643450676454,4861.7212045,-42
1643450676454,4861.7212074,-40
1643450676487,4861.7212103,-45
1643450676487,4861.7212132,-49
1643450676487,4861.7212162,-45
1643450676487,4861.7212192,-40
1643450676487,4861.7212223,-40
1643450676487,4861.7212255,-33
1643450676487,4861.7212286,-33
1643450676487,4861.7212315,-35
1643450676487,4861.7212345,-30
1643450676487,4861.7212375,-30
1643450676521,4861.7212405,-28
1643450676521,4862.3648454,-23
1643450676521,4862.3648581,-23
1643450676521,4862.3648625,-28
1643450676521,4862.3648676,-35
1643450676521,4862.3648707,-45
1643450676521,4862.3648761,-52
1643450676521,4862.3648793,-59
1643450676521,4862.3648841,-59
1643450676521,4862.3648872,-35
1643450676554,4862.3648902,-14
1643450676554,4862.364895,-30
1643450676554,4862.3648979,-54
1643450676554,4862.364901,-57
1643450676554,4862.3649058,-52
1643450676554,4862.3649097,-45
1643450676554,4862.3649145,-47
1643450676554,4862.3649189,-42
1643450676554,4862.3649238,-28
1643450676554,4862.3649268,-23
1643450676588,4862.3649307,-14
1643450676588,4862.3649341,87
1643450676588,4862.3649389,425
1643450676588,4862.364942,941
1643450676888,4862.3649451,1285
1643450676888,4862.3649481,1026
1643450676888,4862.364951,261
1643450676888,4862.3649538,-166
1643450676888,4862.3649568,-30
1643450676888,4862.3649601,4
1643450676888,4862.364963,-118
1643450676888,4862.364966,-87
1643450676888,4862.3649689,-47
1643450676888,4862.3649718,-78
1643450676923,4862.3649746,-68
1643450676923,4862.3649775,-40
1643450676923,4862.3649803,-33
1643450676923,4862.3649832,-23
1643450676923,4862.364986,-16
1643450676923,4862.3649888,-19
1643450676923,4862.3649919,-4
1643450676923,4862.3649971,14
1643450676923,4862.3650001,19
1643450676923,4862.3650031,33
1643450676955,4862.3650071,57
1643450676955,4862.3650102,78
1643450676955,4862.3650149,97
1643450676955,4862.3650195,118
1643450676955,4862.3650242,135
1643450676955,4862.3650314,156
1643450676955,4862.3650363,187
1643450676955,4862.3650394,218
1643450676955,4862.3650435,235
1643450676955,4862.3650465,251
1643450676987,4862.3650496,273
1643450676987,4862.3650539,282
1643450676987,4862.3650569,273
1643450676987,4862.36506,249
1643450676987,4862.3650646,204
1643450676987,4862.3650677,130
1643450676987,4862.3650727,59
1643450676987,4862.3650756,0
1643450676987,4862.3650787,-57
1643450676987,4862.365083,-95
1643450677020,4862.3650861,-109
1643450677020,4862.365089,-114
1643450677020,4862.3650919,-116
1643450677020,4862.3650948,-111
1643450677020,4862.3650976,-102
1643450677020,4862.3651006,-92
1643450677020,4862.3651034,-85
1643450677020,4862.3651064,-78
1643450677020,4862.3651092,-66
1643450677020,4862.3651121,-57
1643450677055,4862.9170623,-61
1643450677055,4862.9170745,-61
1643450677055,4862.9170783,-52
1643450677055,4862.9170833,-47
1643450677055,4862.9170864,-47
1643450677055,4862.9170915,-42
1643450677055,4862.9170958,-35
1643450677055,4862.9171001,-40
1643450677055,4862.9171031,-42
1643450677055,4862.917107,-40
1643450677088,4862.9171111,-38
1643450677088,4862.9171142,-40
1643450677088,4862.9171173,-40
1643450677088,4862.9171213,-35
1643450677088,4862.9171244,-45
1643450677088,4862.9171285,-61
1643450677088,4862.917134,-57
1643450677088,4862.917137,-45
1643450677088,4862.9171401,-47
1643450677088,4862.9171441,-47
1643450677110,4862.9171472,-38
1643450677110,4862.9171522,-40
1643450677110,4862.917157,-45
1643450677110,4862.9171623,-35
1643450677443,4862.9171662,-26
1643450677443,4862.9171693,-26
1643450677443,4862.9171722,-35
1643450677443,4862.9171752,-49
1643450677443,4862.9171781,-57
1643450677443,4862.9171809,-57
1643450677443,4862.9171838,-33
1643450677443,4862.9171867,7
1643450677443,4862.9171896,16
1643450677443,4862.9171926,-16
1643450677465,4862.9171954,-28
1643450677465,4862.9171983,-16
1643450677465,4862.9172014,-11
1643450677465,4862.9172045,-16
1643450677465,4862.9172076,-9
1643450677465,4862.9172121,-9
1643450677465,4862.9172153,-16
1643450677465,4862.9172204,-2
1643450677465,4862.9172243,114
1643450677465,4862.9172292,458
1643450677488,4862.9172322,979
1643450677488,4862.9172354,1299
1643450677488,4862.9172404,979
1643450677488,4862.9172434,194
1643450677488,4862.9172465,-168
1643450677488,4862.9172516,-7
1643450677488,4862.9172546,0
1643450677488,4862.9172579,-121
1643450677488,4862.9172629,-83
1643450677488,4862.9172675,-47
1643450677509,4862.9172726,-78
1643450677509,4862.9172764,-59
1643450677509,4862.9172815,-28
1643450677509,4862.9172859,-30
1643450677509,4862.9172908,-21
1643450677509,4862.9172954,-2
1643450677509,4862.9173004,4
1643450677509,4862.917305,11
1643450677509,4862.91731,23
1643450677509,4862.9173141,35
1643450677533,4862.9173189,57
1643450677533,4862.9173219,76
1643450677533,4862.917325,83
1643450677533,4862.9173299,99
1643450677533,4862.9173346,128
1643450677533,4862.9173386,149
1643450677533,4862.9173427,171
1643450677533,4862.9173463,201
1643450677533,4862.9173511,230
1643450677533,4863.4706564,247
1643450677554,4863.4706697,259
1643450677554,4863.4706734,270
1643450677554,4863.4706787,280
1643450677554,4863.470682,280
1643450677554,4863.4706854,259
1643450677554,4863.4706906,199
1643450677554,4863.470695,121
1643450677554,4863.4706991,47
1643450677554,4863.4707022,-14
1643450677554,4863.4707071,-61
1643450677576,4863.4707114,-85
1643450677576,4863.4707163,-109
1643450677576,4863.4707208,-142
1643450677576,4863.4707256,-156
1643450677576,4863.4707286,-140
1643450677576,4863.4707316,-128
1643450677576,4863.4707355,-128
1643450677576,4863.4707385,-123
1643450677576,4863.4707442,-118
1643450677576,4863.4707473,-121
1643450677599,4863.4707502,-121
1643450677599,4863.4707532,-116
1643450677599,4863.4707572,-109
1643450677599,4863.4707603,-106
1643450677955,4863.4707643,-102
1643450677955,4863.4707673,-97
1643450677955,4863.4707701,-87
1643450677955,4863.4707729,-78
1643450677955,4863.4707758,-78
1643450677955,4863.4707785,-78
1643450677955,4863.4707813,-76
1643450677955,4863.4707841,-71
1643450677955,4863.4707872,-71
1643450677955,4863.4707903,-66
1643450677978,4863.4707931,-61
1643450677978,4863.4707963,-54
1643450677978,4863.4707997,-47
1643450677978,4863.4708027,-47
1643450677978,4863.4708082,-54
1643450677978,4863.4708113,-49
1643450677978,4863.4708154,-38
1643450677978,4863.4708184,-33
1643450677978,4863.4708219,-33
1643450677978,4863.4708249,-30
1643450678000,4863.4708299,-28
1643450678000,4863.4708328,-23
1643450678000,4863.4708378,-16
1643450678000,4863.4708407,-16
1643450678000,4863.4708437,-16
1643450678000,4863.4708486,-9
1643450678000,4863.4708538,-2
1643450678000,4863.4708586,-7
1643450678000,4863.4708631,-4
1643450678000,4863.4708679,0
1643450678022,4863.4708723,-4
1643450678022,4863.470877,-16
1643450678022,4863.4708815,-19
1643450678022,4863.4708864,-23
1643450678022,4863.4708892,-7
1643450678022,4863.4708923,40
1643450678022,4863.4708971,66
1643450678022,4863.4709016,45
1643450678022,4863.4709064,21
1643450678022,4863.4709117,16
1643450678043,4863.4709147,16
1643450678043,4863.4709178,19
1643450678043,4863.4709209,30
1643450678043,4863.470946,30
1643450678043,4863.4709525,28
1643450678043,4863.470956,35
1643450678043,4863.4709588,71
1643450678043,4863.4709915,268
1643450678043,4863.9710936,720
1643450678043,4863.9711054,1219
1643450678067,4863.971109,1302
1643450678067,4863.971112,681
1643450678067,4863.9711152,-38
1643450678067,4863.9711453,-99
1643450678067,4863.971153,47
1643450678067,4863.9711565,-68
1643450678067,4863.9711612,-118
1643450678067,4863.9711642,-45
1643450678067,4863.9711681,-52
1643450678067,4863.9711712,-80
1643450678089,4863.9711753,-57
1643450678089,4863.9711784,-42
1643450678089,4863.9711831,-45
1643450678089,4863.9711862,-38
1643450678089,4863.9711892,-21
1643450678089,4863.9711941,-19
1643450678089,4863.9711979,-35
1643450678089,4863.971201,-33
1643450678089,4863.9712058,-7
1643450678089,4863.9712088,9
1643450678112,4863.9712132,19
1643450678112,4863.9712181,42
1643450678112,4863.9712213,66
1643450678112,4863.9712261,80
1643450678513,4863.971229,109
1643450678513,4863.9712321,140
1643450678513,4863.9712349,161
1643450678513,4863.9712378,185
1643450678513,4863.9712406,211
1643450678513,4863.9712435,228
1643450678513,4863.9712463,240
1643450678513,4863.9712491,244
1643450678513,4863.971252,240
1643450678513,4863.9712548,216
1643450678533,4863.9712577,159
1643450678533,4863.9712605,78
1643450678533,4863.9712634,7
1643450678533,4863.9712662,-45
1643450678533,4863.9712691,-87
1643450678533,4863.9712721,-111
1643450678533,4863.9712752,-121
1643450678533,4863.9712783,-125
1643450678533,4863.9712813,-128
1643450678533,4863.9712855,-118
1643450678554,4863.9712886,-114
1643450678554,4863.9712926,-104
1643450678554,4863.9712957,-92
1643450678554,4863.9713005,-90
1643450678554,4863.9713042,-87
1643450678554,4863.9713093,-76
1643450678554,4863.9713122,-64
1643450678554,4863.9713154,-57
1643450678554,4863.9713203,-49
1643450678554,4863.9713248,-42
1643450678576,4863.9713295,-42
1643450678576,4863.9713337,-45
1643450678576,4863.9713385,-40
1643450678576,4863.9713422,-33
1643450678576,4863.971347,-33
1643450678576,4863.9713515,-35
1643450678576,4863.9713562,-33
1643450678576,4863.9713592,-38
1643450678576,4863.9713622,-40
1643450678576,4863.9713673,-28
1643450678599,4863.9713704,-26
1643450678599,4863.9713744,-35
1643450678599,4863.9713775,-30
1643450678599,4863.9713824,-23
1643450678599,4863.9713855,-26
1643450678599,4863.9713904,-19
1643450678599,4863.9713948,-11
1643450678599,4864.520616,-21
1643450678599,4864.5206274,-21
1643450678599,4864.5206308,-11
1643450678623,4864.5206339,-14
1643450678623,4864.5206369,-23
1643450678623,4864.5206398,-19
1643450678623,4864.5206427,-11
1643450678623,4864.5206455,-21
1643450678623,4864.5206485,-26
1643450678623,4864.5206513,-23
1643450678623,4864.5206542,-47
1643450678623,4864.5206571,-66
1643450678623,4864.52066,-52
1643450678644,4864.5206628,-40
1643450678644,4864.5206664,-47
1643450678644,4864.5206694,-64
1643450678644,4864.5206722,-73
1643450678644,4864.520675,-68
1643450678644,4864.5206779,-42
1643450678644,4864.5206808,-4
1643450678644,4864.5206837,11
1643450678644,4864.5206866,-7
1643450678644,4864.5206895,-23
1643450678666,4864.5206928,-19
1643450678666,4864.5206957,-16
1643450678666,4864.5206985,-21
1643450678666,4864.5207014,-11
1643450679044,4864.5207043,0
1643450679044,4864.5207071,-4
1643450679044,4864.5207099,-19
1643450679044,4864.5207129,35
1643450679044,4864.5207158,330
1643450679044,4864.5207186,862
1643450679044,4864.5207215,1292
1643450679044,4864.5207244,1154
1643450679044,4864.5207272,408
1643450679044,4864.5207302,-149
1643450679065,4864.5207331,-68
1643450679065,4864.520736,11
1643450679065,4864.520739,-125
1643450679065,4864.5207419,-128
1643450679065,4864.5207448,-73
1643450679065,4864.5207482,-97
1643450679065,4864.520751,-95
1643450679065,4864.5207539,-64
1643450679065,4864.5207568,-61
1643450679065,4864.5207596,-57
1643450679089,4864.5207625,-35
1643450679089,4864.5207653,-21
1643450679089,4864.5207682,-16
1643450679089,4864.5207711,-7
1643450679089,4864.5207739,4
1643450679089,4864.5207769,23
1643450679089,4864.5207797,47
1643450679089,4864.5207826,66
1643450679089,4864.5207854,78
1643450679089,4864.5207883,99
1643450679111,4864.5207912,125
1643450679111,4864.5207941,154
1643450679111,4864.5207969,185
1643450679111,4864.5207998,213
1643450679111,4864.5208026,230
1643450679111,4864.5208054,242
1643450679111,4864.5208084,259
1643450679111,4864.5208113,280
1643450679111,4864.5208141,282
1643450679111,4864.5208171,261
1643450679133,4864.5208205,209
1643450679133,4864.5208235,133
1643450679133,4864.5208266,57
1643450679133,4864.5208294,-14
1643450679133,4864.5208323,-76
1643450679133,4864.5208353,-123
1643450679133,4865.0705823,-152
1643450679133,4865.0705964,-163
1643450679133,4865.0706018,-168
1643450679133,4865.0706073,-173
1643450679156,4865.0706104,-166
1643450679156,4865.0706136,-156
1643450679156,4865.0706187,-152
1643450679156,4865.0706217,-144
1643450679156,4865.0706249,-152
1643450679156,4865.0706291,-163
1643450679156,4865.0706323,-156
1643450679156,4865.0706373,-140
1643450679156,4865.0706403,-133
1643450679156,4865.070645,-125
1643450679179,4865.0706481,-121
1643450679179,4865.0706511,-118
1643450679179,4865.0706542,-104
1643450679179,4865.0706573,-97
1643450679179,4865.0706604,-99
1643450679179,4865.0706635,-99
1643450679179,4865.0706673,-95
1643450679179,4865.0706705,-90
1643450679179,4865.0706756,-87
1643450679179,4865.0706786,-85
1643450679202,4865.0706817,-73
1643450679202,4865.0706847,-68
1643450679202,4865.0706878,-76
1643450679202,4865.0706909,-73
1643450679665,4865.0706951,-66
1643450679665,4865.0706981,-66
1643450679665,4865.070701,-59
1643450679665,4865.0707039,-52
1643450679665,4865.0707068,-52
1643450679665,4865.0707097,-47
1643450679665,4865.0707126,-42
1643450679665,4865.0707154,-40
1643450679665,4865.0707183,-40
1643450679665,4865.0707212,-35
1643450679698,4865.0707241,-26
1643450679698,4865.070727,-23
1643450679698,4865.07073,-19
1643450679698,4865.0707329,-21
1643450679698,4865.0707357,-30
1643450679698,4865.0707386,-40
1643450679698,4865.0707419,-47
1643450679698,4865.070745,-40
1643450679698,4865.0707504,-9
1643450679698,4865.0707537,28
1643450679732,4865.0707578,38
1643450679732,4865.070761,16
1643450679732,4865.070766,2
1643450679732,4865.0707689,7
1643450679732,4865.070772,9
1643450679732,4865.0707751,4
1643450679732,4865.0707793,7
1643450679732,4865.0707824,16
1643450679732,4865.0707873,23
1643450679732,4865.0707913,28
1643450679765,4865.0707945,118
1643450679765,4865.0708,472
1643450679765,4865.0708037,1033
1643450679765,4865.0708068,1375
1643450679765,4865.070811,1052
1643450679765,4865.0708142,244
1643450679765,4865.0708191,-163
1643450679765,4865.0708221,-14
1643450679765,4865.0708257,-2
1643450679765,4865.0708309,-137
1643450679799,4865.0708341,-106
1643450679799,4865.0708383,-64
1643450679799,4865.0708414,-99
1643450679799,4865.0708459,-92
1643450679799,4865.0708491,-57
1643450679799,4865.6662831,-54
1643450679799,4865.6662952,-52
1643450679799,4865.6662987,-33
1643450679799,4865.6663019,-19
1643450679799,4865.6663094,-9
1643450679832,4865.6663126,4
1643450679832,4865.6663173,7
1643450679832,4865.6663203,-2
1643450679832,4865.6663234,4
1643450679832,4865.6663274,33
1643450679832,4865.6663305,57
1643450679832,4865.6663353,73
1643450679832,4865.6663382,102
1643450679832,4865.6663412,130
1643450679832,4865.6663461,152
1643450679866,4865.6663508,180
1643450679866,4865.6663547,213
1643450679866,4865.6663577,230
1643450679866,4865.6663627,237
1643450679866,4865.6663657,244
1643450679866,4865.6663706,244
1643450679866,4865.6663735,223
1643450679866,4865.6663772,173
1643450679866,4865.6663802,97
1643450679866,4865.6663832,16
1643450679898,4865.6663862,-47
1643450679898,4865.6663892,-95
1643450679898,4865.6663934,-130
1643450679898,4865.6663963,-149
1643450680269,4865.6664002,-152
1643450680269,4865.6664032,-149
1643450680269,4865.6664061,-147
1643450680269,4865.6664089,-133
1643450680269,4865.6664117,-123
1643450680269,4865.6664145,-116
1643450680269,4865.6664173,-106
1643450680269,4865.6664202,-99
1643450680269,4865.666423,-90
1643450680269,4865.6664259,-80
1643450680290,4865.6664287,-73
1643450680290,4865.6664315,-66
1643450680290,4865.6664344,-61
1643450680290,4865.6664372,-57
1643450680290,4865.6664402,-52
1643450680290,4865.6664433,-45
1643450680290,4865.6664483,-38
1643450680290,4865.6664532,-38
1643450680290,4865.6664579,-38
1643450680290,4865.6664608,-35
1643450680311,4865.6664638,-40
1643450680311,4865.6664687,-38
1643450680311,4865.6664733,-33
1643450680311,4865.6664781,-35
1643450680311,4865.6664824,-38
1643450680311,4865.6664872,-33
1643450680311,4865.666492,-19
1643450680311,4865.6664971,-16
1643450680311,4865.6665017,-26
1643450680311,4865.6665063,-33
1643450680334,4865.666511,-26
1643450680334,4865.666515,-19
1643450680334,4865.6665181,-19
1643450680334,4865.6665228,-19
1643450680334,4865.6665273,-9
1643450680334,4865.6665321,-4
1643450680334,4865.6665366,0
1643450680334,4865.6665414,7
1643450680334,4865.6665446,9
1643450680334,4865.6665476,4
1643450680356,4865.6665516,2
1643450680356,4865.6665547,-4
1643450680356,4865.6665595,-14
1643450680356,4865.6665624,-21
1643450680356,4866.2707243,2
1643450680356,4866.2707377,54
1643450680356,4866.2707415,78
1643450680356,4866.2707456,52
1643450680356,4866.2707687,28
1643450680356,4866.2707722,23
1643450680378,4866.2707753,7
1643450680378,4866.2707784,-2
1643450680378,4866.2707816,2
1643450680378,4866.2707847,4
1643450680378,4866.2707892,9
1643450680378,4866.2707924,11
1643450680378,4866.270798,52
1643450680378,4866.2708011,289
1643450680378,4866.2708042,803
1643450680378,4866.2708083,1333
1643450680400,4866.2708133,1340
1643450680400,4866.2708163,608
1643450680400,4866.2708193,-102
1643450680400,4866.2708226,-99
1643450680400,4866.2708278,35
1643450680400,4866.2708331,-99
1643450680400,4866.270838,-130
1643450680400,4866.2708428,-68
1643450680400,4866.2708477,-95
1643450680400,4866.2708524,-106
1643450680420,4866.2708574,-71
1643450680420,4866.2709639,-59
1643450680420,4866.2709696,-30
1643450680420,4866.2709729,35
1643450680898,4866.270977,47
1643450680898,4866.2709802,-21
1643450680898,4866.2709832,-57
1643450680898,4866.2709861,-19
1643450680898,4866.2709891,9
1643450680898,4866.2709921,35
1643450680898,4866.270995,76
1643450680898,4866.270998,104
1643450680898,4866.271001,116
1643450680898,4866.271004,142
1643450680923,4866.271007,180
1643450680923,4866.2710102,168
1643450680923,4866.2710133,133
1643450680923,4866.2710163,197
1643450680923,4866.2710193,285
1643450680923,4866.2710224,275
1643450680923,4866.2710255,256
1643450680923,4866.2710285,280
1643450680923,4866.2710315,261
1643450680923,4866.2710345,199
1643450680944,4866.2710375,137
1643450680944,4866.2710404,71
1643450680944,4866.2710436,7
1643450680944,4866.2710468,-61
1643450680944,4866.2710511,-116
1643450680944,4866.2710543,-111
1643450680944,4866.2710594,-85
1643450680944,4866.2710632,-121
1643450680944,4866.2710672,-166
1643450680944,4866.2710711,-142
1643450680966,4866.2710763,-102
1643450680966,4866.2710794,-85
1643450680966,4866.2710826,-64
1643450680966,4866.2710876,-73
1643450680966,4866.2710922,-92
1643450680966,4866.2710972,-59
1643450680966,4866.2711019,-52
1643450680966,4866.2711068,-95
1643450680966,4866.2711249,-83
1643450680966,4866.2711294,-28
1643450680989,4866.2711325,-9
1643450680989,4866.2711355,-23
1643450680989,4866.2711385,-59
1643450680989,4866.916971,-73
1643450680989,4866.9169819,-47
1643450680989,4866.9169852,-30
1643450680989,4866.9169881,-26
1643450680989,4866.9170037,-16
1643450680989,4866.917007,-14
1643450680989,4866.9170099,-28
1643450681009,4866.9170127,-21
1643450681009,4866.9170155,-9
1643450681009,4866.9170184,-38
1643450681009,4866.9170212,-68
1643450681009,4866.917024,-45
1643450681009,4866.9170269,-19
1643450681009,4866.9170297,-16
1643450681009,4866.9170325,-9
1643450681009,4866.9170354,4
1643450681009,4866.9170382,9
1643450681032,4866.9170409,-19
1643450681032,4866.9170438,-76
1643450681032,4866.9170469,-102
1643450681032,4866.9170501,-71
1643450681032,4866.9170529,-23
1643450681032,4866.9170557,-4
1643450681032,4866.9170585,-11
1643450681032,4866.9170613,-35
1643450681032,4866.9170641,-33
1643450681032,4866.9170669,-14
1643450681054,4866.9170697,-47
1643450681054,4866.9170725,-85
1643450681054,4866.9170754,-42
1643450681054,4866.9170782,9
1643450681343,4866.917081,14
1643450681343,4866.9170838,-2
1643450681343,4866.9170866,-11
1643450681343,4866.9170894,-4
1643450681343,4866.9170922,-4
1643450681343,4866.917095,-21
1643450681343,4866.9170978,-19
1643450681343,4866.9171005,4
1643450681343,4866.9171034,23
1643450681343,4866.9171061,11
1643450681367,4866.9171089,21
1643450681367,4866.9171118,270
1643450681367,4866.9171149,800
1643450681367,4866.9171177,1254
1643450681367,4866.9171205,1195
1643450681367,4866.9171233,520
1643450681367,4866.9171261,-102
1643450681367,4866.917129,-97
1643450681367,4866.9171318,16
1643450681367,4866.9171345,-118
1643450681390,4866.9171374,-159
1643450681390,4866.9171401,-73
1643450681390,4866.917143,-61
1643450681390,4866.9171458,-73
1643450681390,4866.9171486,-49
1643450681390,4866.9171514,-28
1643450681390,4866.9171569,-40
1643450681390,4866.9171602,-47
1643450681390,4866.9171638,-23
1643450681390,4866.9171666,4
1643450681412,4866.9171695,21
1643450681412,4866.9171723,57
1643450681412,4866.9171751,78
1643450681412,4866.917178,49
1643450681412,4866.9171813,64
1643450681412,4866.9171842,104
1643450681412,4866.9171871,90
1643450681412,4866.9171899,111
1643450681412,4866.9171927,187
1643450681412,4866.9171955,218
1643450681433,4866.9171983,223
1643450681433,4866.9172011,249
1643450681433,4867.3692574,261
1643450681433,4867.3692703,251
1643450681433,4867.3692741,259
1643450681433,4867.3692785,280
1643450681433,4867.3692814,280
1643450681433,4867.3692843,254
1643450681433,4867.3692874,209
1643450681433,4867.3692915,130
1643450681457,4867.3692947,16
1643450681457,4867.3692997,-52
1643450681457,4867.3693028,-76
1643450681457,4867.369307,-111
1643450681457,4867.3693101,-128
1643450681457,4867.3693141,-128
1643450681457,4867.3693171,-118
1643450681457,4867.3693223,-80
1643450681457,4867.3693272,-78
1643450681457,4867.3693321,-128
1643450681479,4867.369335,-130
1643450681479,4867.369338,-87
1643450681479,4867.3693415,-97
1643450681479,4867.3693445,-114
1643450681479,4867.3693485,-83
1643450681479,4867.3693517,-71
1643450681479,4867.3693567,-76
1643450681479,4867.3693603,-47
1643450681479,4867.3693634,-42
1643450681479,4867.3693683,-49
1643450681500,4867.3693714,-35
1643450681500,4867.3693743,-59
1643450681500,4867.3693793,-85
1643450681500,4867.3693823,-47
1643450681857,4867.3693853,-35
1643450681857,4867.3693883,-57
1643450681857,4867.3693912,-40
1643450681857,4867.3693941,-42
1643450681857,4867.3693969,-73
1643450681857,4867.3693997,-66
1643450681857,4867.3694025,-54
1643450681857,4867.3694053,-42
1643450681857,4867.3694081,-30
1643450681857,4867.3694109,-38
1643450681876,4867.3694138,-38
1643450681876,4867.3694166,-11
1643450681876,4867.3694194,2
1643450681876,4867.3694223,-35
1643450681876,4867.3694252,-66
1643450681876,4867.369428,-26
1643450681876,4867.3694308,9
1643450681876,4867.3694338,-4
1643450681876,4867.3694369,-14
1643450681876,4867.3694398,-9
1643450681898,4867.3694428,-7
1643450681898,4867.369447,4
1643450681898,4867.3695092,7
1643450681898,4867.3695161,-7
1643450681898,4867.3695193,-7
1643450681898,4867.3695223,-16
1643450681898,4867.3695251,-19
1643450681898,4867.3695279,38
1643450681898,4867.3695308,66
1643450681898,4867.369534,26
1643450681921,4867.3695368,11
1643450681921,4867.3695396,38
1643450681921,4867.3695425,42
1643450681921,4867.3695454,9
1643450681921,4867.3695482,-19
1643450681921,4867.3695515,-9
1643450681921,4867.3695545,7
1643450681921,4867.3695586,19
1643450681921,4867.3695617,99
1643450681921,4867.3695648,403
1643450681942,4867.3695678,898
1643450681942,4867.8708489,1264
1643450681942,4867.8708624,1078
1643450681942,4867.870868,332
1643450681942,4867.8708735,-178
1643450681942,4867.8708767,-73
1643450681942,4867.8708799,16
1643450681942,4867.8708828,-109
1643450681942,4867.8708859,-133
1643450681942,4867.8708889,-85
1643450681965,4867.870892,-87
1643450681965,4867.8708951,-114
1643450681965,4867.8708982,-85
1643450681965,4867.8709011,-42
1643450681965,4867.8709041,-71
1643450681965,4867.8709085,-102
1643450681965,4867.8709114,-78
1643450681965,4867.870915,-45
1643450681965,4867.8709181,-42
1643450681965,4867.8709212,-42
1643450681988,4867.8709243,4
1643450681988,4867.8709291,26
1643450681988,4867.8709322,-16
1643450681988,4867.8709353,-2
1643450681988,4867.8709383,66
1643450681988,4867.8709414,97
1643450681988,4867.8709444,118
1643450681988,4867.8709476,140
1643450681988,4867.8709506,130
1643450681988,4867.8709548,163
1643450682009,4867.8709579,242
1643450682009,4867.870961,249
1643450682009,4867.8709641,220
1643450682009,4867.8709671,256
1643450682499,4867.8709702,268
1643450682499,4867.8709732,178
1643450682499,4867.870976,59
1643450682499,4867.8709789,-16
1643450682499,4867.8709817,-64
1643450682499,4867.8709846,-109
1643450682499,4867.8709875,-161
1643450682499,4867.8709903,-192
1643450682499,4867.8709931,-178
1643450682499,4867.870996,-128
1643450682521,4867.8709988,-116
1643450682521,4867.8710016,-159
1643450682521,4867.8710045,-199
1643450682521,4867.8710076,-178
1643450682521,4867.8710108,-116
1643450682521,4867.871015,-116
1643450682521,4867.8710181,-140
1643450682521,4867.871022,-61
1643450682521,4867.8710255,-16
1643450682521,4867.8710306,-90
1643450682543,4867.8710336,-133
1643450682543,4867.8710366,-128
1643450682543,4867.8710396,-114
1643450682543,4867.8710448,-87
1643450682543,4867.8710478,-83
1643450682543,4867.8710509,-49
1643450682543,4867.8710559,35
1643450682543,4867.8710606,16
1643450682543,4867.8710655,-125
1643450682543,4867.8710699,-154
1643450682565,4867.8710749,-57
1643450682565,4867.8710785,-19
1643450682565,4867.8710815,-64
1643450682565,4867.8710846,-85
1643450682565,4867.8710876,-68
1643450682565,4867.8710906,-71
1643450682565,4867.8710936,-76
1643450682565,4867.8710975,-52
1643450682565,4867.8711006,-54
1643450682565,4867.8711038,-76
1643450682588,4868.5160563,-19
1643450682588,4868.5160698,4
1643450682588,4868.5160735,-111
1643450682588,4868.5160769,-135
1643450682588,4868.5160827,-59
1643450682588,4868.5160859,-85
1643450682588,4868.5160897,-125
1643450682588,4868.5160949,-92
1643450682588,4868.516099,-52
1643450682588,4868.5161041,-11
1643450682610,4868.5161088,47
1643450682610,4868.5161138,16
1643450682610,4868.5161187,-116
1643450682610,4868.5161237,-144
1643450682610,4868.5161274,-61
1643450682610,4868.5161317,-14
1643450682610,4868.516135,-2
1643450682610,4868.5161391,19
1643450682610,4868.5161433,28
1643450682610,4868.5161464,35
1643450682634,4868.5161682,259
1643450682634,4868.5161902,805
1643450682634,4868.5161993,1209
1643450682634,4868.5162029,990
1643450682634,4868.516206,282
1643450682634,4868.5162091,-168
1643450682634,4868.516212,-73
1643450682634,4868.5162149,-14
1643450682634,4868.5162178,-121
1643450682634,4868.5162207,-118
1643450682655,4868.5162236,-66
1643450682655,4868.5162265,-52
1643450682655,4868.5162294,-57
1643450682655,4868.5162323,-54
1643450683100,4868.5162352,-28
1643450683100,4868.5162382,28
1643450683100,4868.516241,54
1643450683100,4868.5162439,-21
1643450683100,4868.5162468,-71
1643450683100,4868.5162498,4
1643450683100,4868.5162531,59
1643450683100,4868.516256,42
1643450683100,4868.5162589,64
1643450683100,4868.5162618,135
1643450683123,4868.5162647,173
1643450683123,4868.5162677,144
1643450683123,4868.5162705,128
1643450683123,4868.5162738,166
1643450683123,4868.5162767,228
1643450683123,4868.5162796,292
1643450683123,4868.5162825,337
1643450683123,4868.5162854,363
1643450683123,4868.5162883,361
1643450683123,4868.5162913,304
1643450683142,4868.5162943,278
1643450683142,4868.5162974,289
1643450683142,4868.5163004,244
1643450683142,4868.5163034,149
1643450683142,4868.5163063,64
1643450683142,4868.5163092,2
1643450683142,4868.5163122,-28
1643450683142,4868.5163152,-73
1643450683142,4868.5163181,-154
1643450683142,4868.5163211,-204
1643450683165,4868.5163239,-199
1643450683165,4868.5163269,-180
1643450683165,4868.5163299,-166
1643450683165,4868.5163327,-152
1643450683165,4868.5163355,-125
1643450683165,4868.5163386,-99
1643450683165,4868.5163416,-116
1643450683165,4868.5163448,-159
1643450683165,4868.5163477,-137
1643450683165,4869.1158202,-104
1643450683188,4869.1158326,-125
1643450683188,4869.1158387,-102
1643450683188,4869.115843,-61
1643450683188,4869.1158462,-99
1643450683188,4869.1158501,-125
1643450683188,4869.1158532,-59
1643450683188,4869.1158574,-35
1643450683188,4869.1159134,-121
1643450683188,4869.1159167,-142
1643450683188,4869.1159197,-80
1643450683209,4869.1159226,-97
1643450683209,4869.1159256,-140
1643450683209,4869.1159285,-95
1643450683209,4869.1159568,-71
1643450683209,4869.1159616,-106
1643450683209,4869.1159647,-104
1643450683209,4869.1159677,-71
1643450683209,4869.1159706,-83
1643450683209,4869.1159736,-109
1643450683209,4869.1159767,-106
1643450683232,4869.1159798,-102
1643450683232,4869.115984,-111
1643450683232,4869.1159872,-118
1643450683232,4869.1159913,-95
1643450683232,4869.1159945,-40
1643450683232,4869.1159985,2
1643450683232,4869.1160018,-19
1643450683232,4869.1160057,-83
1643450683232,4869.116009,-87
1643450683232,4869.116013,-38
1643450683255,4869.1160366,-42
1643450683255,4869.1160425,-68
1643450683255,4869.1160456,-30
1643450683255,4869.1161042,4
1643450683543,4869.1161102,4
1643450683543,4869.1161133,-7
1643450683543,4869.1161161,14
1643450683543,4869.1161191,301
1643450683543,4869.1161221,886
1643450683543,4869.1161249,1302
1643450683543,4869.1161278,1131
1643450683543,4869.1161307,420
1643450683543,4869.1161335,-137
1643450683543,4869.1161364,-99
1643450683565,4869.1161393,-2
1643450683565,4869.1161423,-114
1643450683565,4869.1161451,-133
1643450683565,4869.116148,-80
1643450683565,4869.1161508,-76
1643450683565,4869.1161537,-66
1643450683565,4869.116159,-42
1643450683565,4869.1161624,-33
1643450683565,4869.1161653,-35
1643450683565,4869.1161681,-38
1643450683588,4869.116171,-21
1643450683588,4869.1162156,0
1643450683588,4869.1162235,-2
1643450683588,4869.1162269,23
1643450683588,4869.1162299,66
1643450683588,4869.1162328,49
1643450683588,4869.1162357,23
1643450683588,4869.1162386,71
1643450683588,4869.1162416,102
1643450683588,4869.1162444,90
1643450683611,4869.1162473,142
1643450683611,4869.1171795,206
1643450683611,4869.1171871,220
1643450683611,4869.1171904,251
1643450683611,4869.1171934,280
1643450683611,4869.1171972,268
1643450683611,4869.1172001,285
1643450683611,4869.1172031,311
1643450683611,4869.5710326,280
1643450683611,4869.571044,218
1643450683633,4869.5710477,142
1643450683633,4869.5710507,61
1643450683633,4869.5710538,-9
1643450683633,4869.5710596,-85
1643450683633,4869.5710626,-140
1643450683633,4869.5710656,-159
1643450683633,4869.5710685,-159
1643450683633,4869.5710714,-154
1643450683633,4869.5710743,-156
1643450683633,4869.5710772,-121
1643450683654,4869.5710802,-80
1643450683654,4869.5710831,-99
1643450683654,4869.571086,-116
1643450683654,4869.5710889,-123
1643450683654,4869.5710918,-147
1643450683654,4869.5710948,-161
1643450683654,4869.5710976,-159
1643450683654,4869.5711005,-123
1643450683654,4869.5711034,-64
1643450683654,4869.5711064,-73
1643450683677,4869.5711093,-130
1643450683677,4869.5711123,-125
1643450683677,4869.5711153,-87
1643450683677,4869.5711182,-66
1643450683677,4869.5711212,-71
1643450683677,4869.5711241,-95
1643450683677,4869.571127,-85
1643450683677,4869.5711299,-71
1643450683677,4869.5711332,-83
1643450683677,4869.5711361,-68
1643450683699,4869.5711391,-59
1643450683699,4869.571142,-78
1643450683699,4869.5711449,-61
1643450683699,4869.5711478,-35
1643450684209,4869.5711508,-35
1643450684209,4869.5711537,-40
1643450684209,4869.5711597,-38
1643450684209,4869.5711629,-26
1643450684209,4869.5712128,-26
1643450684209,4869.5712173,-61
1643450684209,4869.5712204,-87
1643450684209,4869.5712233,-49
1643450684209,4869.5712262,4
1643450684209,4869.5712292,38
1643450684244,4869.5712321,38
1643450684244,4869.571235,7
1643450684244,4869.5712379,11
1643450684244,4869.5712408,61
1643450684244,4869.5712437,19
1643450684244,4869.5712466,-61
1643450684244,4869.5712495,-35
1643450684244,4869.5712524,9
1643450684244,4869.5712554,0
1643450684244,4869.5712591,-23
1643450684276,4869.571262,78
1643450684276,4869.571265,463
1643450684276,4869.5712679,1007
1643450684276,4869.5712709,1297
1643450684276,4869.5712738,931
1643450684276,4869.5712768,159
1643450684276,4869.5712797,-149
1643450684276,4869.5712826,2
1643450684276,4869.5712855,-35
1643450684276,4869.5712884,-135
1643450684309,4869.5712914,-52
1643450684309,4869.5712943,-33
1643450684309,4869.5712973,-109
1643450684309,4869.5713002,-83
1643450684309,4869.5713031,-14
1643450684309,4869.571306,-47
1643450684309,4869.5713089,-64
1643450684309,4870.2155699,-7
1643450684309,4870.2155827,-4
1643450684309,4870.215588,-35
1643450684343,4870.2155931,-26
1643450684343,4870.2155978,2
1643450684343,4870.2156027,35
1643450684343,4870.2156064,78
1643450684343,4870.2156096,95
1643450684343,4870.2156145,64
1643450684343,4870.2156174,30
1643450684343,4870.2156205,42
1643450684343,4870.2156254,92
1643450684343,4870.21563,156
1643450684378,4870.2156347,235
1643450684378,4870.2156393,285
1643450684378,4870.2156441,225
1643450684378,4870.2156486,187
1643450684378,4870.2156534,285
1643450684378,4870.2156565,287
1643450684378,4870.2156605,95
1643450684378,4870.2156636,19
1643450684378,4870.2156706,97
1643450684378,4870.2156735,38
1643450684411,4870.2156764,-99
1643450684411,4870.2156809,-133
1643450684411,4870.2156839,-133
1643450684411,4870.2156869,-154
1643450684411,4870.2156925,-161
1643450684411,4870.2156956,-171
1643450684411,4870.2157005,-180
1643450684411,4870.2157036,-142
1643450684411,4870.2157085,-128
1643450684411,4870.2157116,-178
1643450684445,4870.2157163,-192
1643450684445,4870.2157194,-175
1643450684445,4870.2157241,-118
1643450684445,4870.2157272,-30
1643450684809,4870.2157319,-2
1643450684809,4870.2157349,4
1643450684809,4870.2157378,-14
1643450684809,4870.2157406,-68
1643450684809,4870.2157434,-114
1643450684809,4870.2158478,-173
1643450684809,4870.2158627,-168
1643450684809,4870.2158673,-54
1643450684809,4870.2158704,-59
1643450684809,4870.2158734,-161
1643450684843,4870.2158763,-87
1643450684843,4870.2158792,-14
1643450684843,4870.2158821,-121
1643450684843,4870.215885,-106
1643450684843,4870.215888,52
1643450684843,4870.2158912,-7
1643450684843,4870.2158943,-166
1643450684843,4870.2159005,-114
1643450684843,4870.2159036,-66
1643450684843,4870.2159088,-135
1643450684876,4870.2159119,-68
1643450684876,4870.2159168,54
1643450684876,4870.21592,109
1643450684876,4870.2159247,213
1643450684876,4870.215928,304
1643450684876,4870.2159328,171
1643450684876,4870.215936,-128
1643450684876,4870.2159409,-190
1643450684876,4870.215944,-30
1643450684876,4870.2159489,-52
1643450684909,4870.215952,-149
1643450684909,4870.2159569,-30
1643450684909,4870.2159601,71
1643450684909,4870.2159649,-61
1643450684909,4870.2159681,45
1643450684909,4870.2159729,712
1643450684909,4870.8163904,1285
1643450684909,4870.8164035,1143
1643450684909,4870.8164069,444
1643450684909,4870.8164101,-123
1643450684931,4870.8164152,-102
1643450684931,4870.8164182,38
1643450684931,4870.8164213,-83
1643450684931,4870.8164243,-161
1643450684931,4870.8164273,-57
1643450684931,4870.8164304,49
1643450684931,4870.8164353,95
1643450684931,4870.8164383,11
1643450684931,4870.8164414,-154
1643450684931,4870.8164444,-161
1643450684953,4870.8164492,-87
1643450684953,4870.8164521,-47
1643450684953,4870.816455,49
1643450684953,4870.816458,14
1643450684953,4870.8164623,-133
1643450684953,4870.8164654,-19
1643450684953,4870.8164693,140
1643450684953,4870.8164724,64
1643450684953,4870.8164771,42
1643450684953,4870.8164818,130
1643450684976,4870.8164869,154
1643450684976,4870.81649,156
1643450684976,4870.8164938,190
1643450684976,4870.8164969,275
1643450684976,4870.8165018,354
1643450684976,4870.8165058,351
1643450684976,4870.8165091,346
1643450684976,4870.8165138,330
1643450684976,4870.8165182,266
1643450684976,4870.8165233,256
1643450684998,4870.8165278,261
1643450684998,4870.8165325,142
1643450684998,4870.8165369,2
1643450684998,4870.8165416,-21
1643450685353,4870.8165463,9
1643450685353,4870.8165494,-85
1643450685353,4870.8165523,-275
1643450685353,4870.8165552,-316
1643450685353,4870.8165581,-230
1643450685353,4870.8165611,-199
1643450685353,4870.816564,-206
1643450685353,4870.8165669,-213
1643450685353,4870.8165697,-209
1643450685353,4870.8165725,-175
1643450685375,4870.8165753,-111
1643450685375,4870.8165782,-35
1643450685375,4870.816581,-106
1643450685375,4870.8165839,-259
1643450685375,4870.8165867,-237
1643450685375,4870.8165896,-147
1643450685375,4870.8165926,-118
1643450685375,4870.8165957,-104
1643450685375,4870.8165998,-142
1643450685375,4870.8166029,-194
1643450685396,4870.8166076,-147
1643450685396,4870.8166105,-80
1643450685396,4870.8166134,-90
1643450685396,4870.8166165,-102
1643450685396,4870.8166205,-104
1643450685396,4870.8166236,-121
1643450685396,4870.8166283,-123
1643450685396,4870.8166328,-128
1643450685396,4870.8166368,-147
1643450685396,4870.8166399,-156
1643450685420,4870.8166445,-80
1643450685420,4870.8166485,42
1643450685420,4870.8166533,19
1643450685420,4870.8166564,-106
1643450685420,4870.8166613,-104
1643450685420,4871.3654335,-49
1643450685420,4871.3654478,-61
1643450685420,4871.3654534,-87
1643450685420,4871.3655052,-106
1643450685420,4871.3655139,-78
1643450685442,4871.3655192,-4
1643450685442,4871.3655225,-30
1643450685442,4871.3655274,-83
1643450685442,4871.3655306,137
1643450685442,4871.3655356,610
1643450685442,4871.3655405,1064
1643450685442,4871.3655457,1349
1643450685442,4871.3655503,1000
1643450685442,4871.3655551,47
1643450685442,4871.3655588,-351
1643450685465,4871.3655638,-102
1643450685465,4871.3655677,-99
1643450685465,4871.3655726,-223
1643450685465,4871.3655756,-161
1643450685465,4871.3655799,-137
1643450685465,4871.365583,-161
1643450685465,4871.365588,-133
1643450685465,4871.365591,-133
1643450685465,4871.3655941,-156
1643450685465,4871.3655983,-144
1643450685486,4871.3656014,-128
1643450685486,4871.3656063,-114
1643450685486,4871.3656093,-87
1643450685486,4871.3656124,-76
1643450685486,4871.3656164,-52
1643450685486,4871.3656196,-2
1643450685486,4871.3656246,26
1643450685486,4871.3656294,21
1643450685486,4871.3656342,11
1643450685486,4871.3656376,28
1643450685509,4871.3656408,68
1643450685509,4871.3656456,118
1643450685509,4871.3656505,154
1643450685509,4871.3656553,185
1643450685798,4871.36566,275
1643450685798,4871.3656631,351
1643450685798,4871.3656685,306
1643450685798,4871.3656719,270
1643450685798,4871.3656748,237
1643450685798,4871.3656777,109
1643450685798,4871.3656806,38
1643450685798,4871.3656834,35
1643450685798,4871.3656863,-14
1643450685798,4871.3656892,-71
1643450685820,4871.3656921,-128
1643450685820,4871.365695,-178
1643450685820,4871.3656978,-168
1643450685820,4871.3657007,-178
1643450685820,4871.3657036,-199
1643450685820,4871.3657065,-116
1643450685820,4871.3657094,-59
1643450685820,4871.3657123,-185
1643450685820,4871.3657152,-223
1643450685820,4871.3657181,-54
1643450685845,4871.3657209,-9
1643450685845,4871.3657237,-154
1643450685845,4871.3657268,-180
1643450685845,4871.3657299,-111
1643450685845,4871.3657327,-111
1643450685845,4871.3657356,-78
1643450685845,4871.3657384,4
1643450685845,4871.3657413,23
1643450685845,4871.3657441,-21
1643450685845,4871.3657474,-40
1643450685868,4871.3657502,-97
1643450685868,4871.3657531,-192
1643450685868,4871.3657561,-114
1643450685868,4871.3657589,-42
1643450685868,4871.8206251,-97
1643450685868,4871.8206388,-59
1643450685868,4871.820644,-38
1643450685868,4871.8206493,-78
1643450685868,4871.8206524,-64
1643450685868,4871.8206555,-99
1643450685896,4871.8206607,-152
1643450685896,4871.8206837,-111
1643450685896,4871.8206881,-21
1643450685896,4871.8206912,64
1643450685896,4871.8206941,28
1643450685896,4871.820697,-78
1643450685896,4871.8206999,-68
1643450685896,4871.8207028,-23
1643450685896,4871.8207057,-64
1643450685896,4871.8207086,-83
1643450685917,4871.8207114,-42
1643450685917,4871.8207142,-45
1643450685917,4871.8207171,-64
1643450685917,4871.8207201,9
1643450685917,4871.820723,289
1643450685917,4871.820726,872
1643450685917,4871.8207289,1413
1643450685917,4871.8207318,1226
1643450685917,4871.8207347,354
1643450685917,4871.8207378,-232
1643450685936,4871.8207409,-154
1643450685936,4871.820744,-73
1643450685936,4871.8207476,-161
1643450685936,4871.8207508,-128
1643450685936,4871.8207538,-106
1643450685936,4871.8207569,-190
1643450685936,4871.8207599,-190
1643450685936,4871.820763,-130
1643450685936,4871.8207664,-118
1643450685936,4871.8207704,-114
1643450685961,4871.8207734,-104
1643450685961,4871.8207763,-73
1643450685961,4871.8207793,-30
1643450685961,4871.8207822,-28
1643450686354,4871.8207851,-45
1643450686354,4871.820788,-19
1643450686354,4871.8207909,16
1643450686354,4871.8207939,-9
1643450686354,4871.8207969,-26
1643450686354,4871.8207999,49
1643450686354,4871.8208028,118
1643450686354,4871.8208058,144
1643450686354,4871.8208087,168
1643450686354,4871.8209044,187
1643450686387,4871.8209076,225
1643450686387,4871.8209106,280
1643450686387,4871.8209135,261
1643450686387,4871.8209165,194
1643450686387,4871.8209193,206
1643450686387,4871.8209227,244
1643450686387,4871.8209256,187
1643450686387,4871.8209285,64
1643450686387,4871.8209461,-16
1643450686387,4871.8209495,-35
1643450686421,4871.8209525,-71
1643450686421,4871.8209554,-118
1643450686421,4871.8209583,-135
1643450686421,4871.8209613,-133
1643450686421,4871.8209642,-128
1643450686421,4871.8209671,-114
1643450686421,4871.82097,-99
1643450686421,4871.8209737,-80
1643450686421,4871.8209771,-35
1643450686421,4871.8209799,-42
1643450686453,4871.8209828,-123
1643450686453,4871.8209856,-152
1643450686453,4871.8209885,-102
1643450686453,4872.3707499,-66
1643450686453,4872.3707627,-68
1643450686453,4872.3707661,-57
1643450686453,4872.3707693,-35
1643450686453,4872.3707732,-35
1643450686453,4872.3707772,-11
1643450686453,4872.3707819,-9
1643450686487,4872.3707847,-80
1643450686487,4872.3707877,-87
1643450686487,4872.3707924,-40
1643450686487,4872.3707953,-73
1643450686487,4872.3707984,-99
1643450686487,4872.3708031,-66
1643450686487,4872.3708074,-54
1643450686487,4872.3708122,-59
1643450686487,4872.370817,-47
1643450686487,4872.3708219,-54
1643450686519,4872.3708256,-73
1643450686519,4872.3708304,-49
1643450686519,4872.3708333,-30
1643450686519,4872.3708363,-54
1643450686519,4872.3708401,-54
1643450686519,4872.370844,-30
1643450686519,4872.370847,-38
1643450686519,4872.3708519,-42
1643450686519,4872.3708547,-30
1643450686519,4872.3708577,-16
1643450686554,4872.3708626,-26
1643450686554,4872.3708654,-30
1643450686554,4872.3708685,16
1643450686554,4872.3708733,199
1643450686554,4872.3708777,689
1643450686554,4872.3708827,1321
1643450686554,4872.3708857,1456
1643450686554,4872.3708895,727
1643450686554,4872.3708926,-102
1643450686554,4872.3708974,-190
1643450686590,4872.3709019,-54
1643450686590,4872.3709065,-178
1643450686590,4872.370911,-223
1643450686590,4872.3709156,-144
1643450686942,4872.3709184,-135
1643450686942,4872.3709213,-137
1643450686942,4872.370924,-76
1643450686942,4872.3709268,-33
1643450686942,4872.3709296,-76
1643450686942,4872.3709323,-116
1643450686942,4872.370935,-97
1643450686942,4872.3709377,-80
1643450686942,4872.3709405,-71
1643450686942,4872.3709432,-40
1643450686965,4872.3709459,-9
1643450686965,4872.3709487,16
1643450686965,4872.3709523,33
1643450686965,4872.3709551,52
1643450686965,4872.3709579,90
1643450686965,4872.3709607,114
1643450686965,4872.3709634,130
1643450686965,4872.3709662,175
1643450686965,4872.3709691,232
1643450686965,4872.370972,249
1643450686987,4872.3709749,232
1643450686987,4872.3709778,230
1643450686987,4872.3709806,244
1643450686987,4872.3709835,247
1643450686987,4872.3709864,232
1643450686987,4872.3709903,204
1643450686987,4872.3709933,147
1643450686987,4872.3709963,52
1643450686987,4872.3710009,-40
1643450686987,4872.3710057,-68
1643450687010,4872.3710112,-71
1643450687010,4872.3710143,-130
1643450687010,4872.9706537,-199
1643450687010,4872.9706666,-194
1643450687010,4872.9706724,-159
1643450687010,4872.9706777,-142
1643450687010,4872.9706815,-116
1643450687010,4872.9706864,-78
1643450687010,4872.9706897,-61
1643450687010,4872.9706953,-97
1643450687031,4872.9706994,-144
1643450687031,4872.9707044,-90
1643450687031,4872.9707088,-19
1643450687031,4872.9707137,-102
1643450687031,4872.9707167,-147
1643450687031,4872.9707197,-76
1643450687031,4872.9707247,-83
1643450687031,4872.9707294,-111
1643450687031,4872.9707342,-87
1643450687031,4872.9707388,-66
1643450687055,4872.9707437,-4
1643450687055,4872.9707466,-7
1643450687055,4872.9707497,-118
1643450687055,4872.9707546,-125
1643450687055,4872.9707592,-68
1643450687055,4872.9707634,-83
1643450687055,4872.9707665,-90
1643450687055,4872.9707705,-57
1643450687055,4872.9707735,-80
1643450687055,4872.9707785,-142
1643450687079,4872.9707813,-123
1643450687079,4872.9707845,-68
1643450687079,4872.9707894,-47
1643450687079,4872.9707924,23
1643450687079,4872.9707954,57
1643450687079,4872.9707983,-38
1643450687079,4872.9708012,-92
1643450687079,4872.9708044,-49
1643450687079,4872.9708072,-59
1643450687079,4872.9708099,-102
1643450687099,4872.9708128,-57
1643450687099,4872.9708156,-2
1643450687099,4872.9708184,-33
1643450687099,4872.9708212,-47
1643450687702,4872.9708249,-9
1643450687702,4872.9708277,149
1643450687702,4872.9708307,601
1643450687702,4872.9708336,1128
1643450687702,4872.9708365,1207
1643450687702,4872.9708393,596
1643450687702,4872.9708422,-85
1643450687702,4872.970845,-144
1643450687702,4872.9708479,4
1643450687702,4872.9708508,-87
1643450687722,4872.9708537,-144
1643450687722,4872.9708565,-66
1643450687722,4872.9708594,-45
1643450687722,4872.9708622,-40
1643450687722,4872.970865,-38
1643450687722,4872.9708678,-109
1643450687722,4872.9708714,-57
1643450687722,4872.9708743,90
1643450687722,4872.9708772,30
1643450687722,4872.9708802,-123
1643450687743,4872.9708831,-99
1643450687743,4872.9708859,-11
1643450687743,4872.9708887,4
1643450687743,4872.9708916,35
1643450687743,4872.9708945,92
1643450687743,4872.9708974,85
1643450687743,4872.9709003,76
1643450687743,4872.9709032,137
1643450687743,4872.9709059,175
1643450687743,4872.970909,190
1643450687764,4872.9709119,251
1643450687764,4873.7166436,266
1643450687764,4873.7166576,182
1643450687764,4873.7166612,194
1643450687764,4873.7166663,301
1643450687764,4873.7166713,306
1643450687764,4873.7166764,247
1643450687764,4873.7166863,230
1643450687764,4873.7166923,173
1643450687764,4873.7166972,49
1643450687789,4873.716732,-35
1643450687789,4873.7167374,-80
1643450687789,4873.7167408,-137
1643450687789,4873.7167439,-178
1643450687789,4873.7167469,-173
1643450687789,4873.7167499,-173
1643450687789,4873.7167528,-209
1643450687789,4873.7167557,-194
1643450687789,4873.7167585,-161
1643450687789,4873.7167621,-187
1643450687810,4873.7167654,-201
1643450687810,4873.7167683,-163
1643450687810,4873.7167712,-149
1643450687810,4873.7167741,-154
1643450687810,4873.716777,-144
1643450687810,4873.7167799,-154
1643450687810,4873.7167828,-171
1643450687810,4873.7167858,-137
1643450687810,4873.7167886,-85
1643450687810,4873.7167916,-90
1643450687834,4873.7167945,-147
1643450687834,4873.7167974,-159
1643450687834,4873.7168002,-102
1643450687834,4873.7168031,-76
1643450687834,4873.716806,-106
1643450687834,4873.716809,-133
1643450687834,4873.7168119,-106
1643450687834,4873.7168148,-66
1643450687834,4873.7168177,-68
1643450687834,4873.7168206,-118
1643450687855,4873.7168235,-149
1643450687855,4873.7168263,-99
1643450687855,4873.7168292,-38
1643450687855,4873.7168321,-52
1643450688054,4873.7168349,-97
1643450688054,4873.7168379,-87
1643450688054,4873.7168408,-80
1643450688054,4873.7168438,-92
1643450688054,4873.7168467,-59
1643450688054,4873.7168497,-45
1643450688054,4873.7168525,-78
1643450688054,4873.7168555,-80
1643450688054,4873.7168584,-68
1643450688054,4873.7168613,-14
1643450688077,4873.7168643,273
1643450688077,4873.7168673,781
1643450688077,4873.7168702,1190
1643450688077,4873.7168731,1114
1643450688077,4873.716876,434
1643450688077,4873.716879,-154
1643450688077,4873.7168819,-111
1643450688077,4873.7168848,-23
1643450688077,4873.7168877,-152
1643450688077,4873.7168908,-166
1643450688099,4873.7168936,-121
1643450688099,4873.7168965,-156
1643450688099,4873.7168993,-168
1643450688099,4873.7169022,-85
1643450688099,4873.7169051,-66
1643450688099,4873.7169081,-135
1643450688099,4873.7169118,-99
1643450688099,4873.7169152,-16
1643450688099,4873.7169181,-38
1643450688099,4873.716921,-54
1643450688121,4874.0711363,-21
1643450688121,4874.0711489,-9
1643450688121,4874.0711539,61
1643450688121,4874.071159,133
1643450688121,4874.0711622,87
1643450688121,4874.071167,54
1643450688121,4874.0711699,80
1643450688121,4874.071173,71
1643450688121,4874.0711771,128
1643450688121,4874.0711801,223
1643450688144,4874.0711831,218
1643450688144,4874.071186,218
1643450688144,4874.0711888,308
1643450688144,4874.0711916,368
1643450688144,4874.0711944,251
1643450688144,4874.0711971,116
1643450688144,4874.0712,118
1643450688144,4874.0712028,52
1643450688144,4874.0712056,-97
1643450688144,4874.0712084,-111
1643450688166,4874.0712112,-95
1643450688166,4874.071214,-161
1643450688166,4874.0712168,-197
1643450688166,4874.0712225,-190
1643450688166,4874.0712265,-180
1643450688166,4874.0712296,-144
1643450688166,4874.0712346,-130
1643450688166,4874.0712376,-161
1643450688166,4874.0712424,-175
1643450688166,4874.0712454,-178
1643450688187,4874.0712503,-173
1643450688187,4874.0712532,-149
1643450688187,4874.0712562,-114
1643450688187,4874.0712592,-68
1643450688187,4874.0712622,-80
1643450688187,4874.0712652,-140
1643450688187,4874.0712702,-125
1643450688187,4874.0712733,-78
1643450688187,4874.0712775,-80
1643450688187,4874.0712806,-102
1643450688209,4874.0712858,-118
1643450688209,4874.0712896,-121
1643450688209,4874.0712926,-97
1643450688209,4874.0712967,-95
1643450688643,4874.0712997,-106
1643450688643,4874.0713027,-68
1643450688643,4874.0713055,-57
1643450688643,4874.0713083,-99
1643450688643,4874.0713111,-116
1643450688643,4874.0713139,-64
1643450688643,4874.0713166,-21
1643450688643,4874.0713194,-61
1643450688643,4874.0713222,-47
1643450688643,4874.071325,38
1643450688676,4874.0713279,16
1643450688676,4874.0713307,-57
1643450688676,4874.0713335,-87
1643450688676,4874.0713362,-95
1643450688676,4874.071339,-71
1643450688676,4874.0713419,-21
1643450688676,4874.0713447,7
1643450688676,4874.0713476,-14
1643450688676,4874.0713504,-54
1643450688676,4874.0713533,73
1643450688710,4874.0713561,539
1643450688710,4874.0713589,1176
1643450688710,4874.0713616,1487
1643450688710,4874.0713645,971
1643450688710,4874.0713673,73
1643450688710,4874.0713701,-152
1643450688710,4874.071373,71
1643450688710,4874.0713758,-28
1643450688710,4874.0713786,-182
1643450688710,4874.6704535,-125
1643450688744,4874.6704658,-118
1643450688744,4874.6704692,-156
1643450688744,4874.6704722,-111
1643450688744,4874.6704751,-45
1643450688744,4874.670478,-45
1643450688744,4874.6704808,-78
1643450688744,4874.6704836,-71
1643450688744,4874.6704864,-11
1643450688744,4874.6704893,9
1643450688744,4874.6704922,-35
1643450688777,4874.670495,-61
1643450688777,4874.670498,-35
1643450688777,4874.6705008,4
1643450688777,4874.6705037,33
1643450688777,4874.6705065,30
1643450688777,4874.6705093,38
1643450688777,4874.6705122,87
1643450688777,4874.670515,175
1643450688777,4874.6705178,235
1643450688777,4874.6705214,190
1643450688810,4874.6705243,152
1643450688810,4874.6705271,197
1643450688810,4874.6705299,225
1643450688810,4874.6705327,237
1643450688810,4874.670536,289
1643450688810,4874.6705388,268
1643450688810,4874.6705416,144
1643450688810,4874.6705444,54
1643450688810,4874.6705472,-26
1643450688810,4874.67055,-118
1643450688844,4874.6705528,-133
1643450688844,4874.6705556,-111
1643450688844,4874.6705584,-125
1643450688844,4874.6705612,-133
1643450688844,4874.670564,-130
1643450688844,4874.6705672,-133
1643450688844,4874.67057,-135
1643450688844,4874.6705728,-133
1643450688844,4874.6705756,-99
1643450688844,4874.6705784,-85
1643450688878,4874.6705812,-106
1643450688878,4874.670584,-97
1643450688878,4874.6705869,-68
1643450688878,4874.6705897,-61
1643450689154,4874.6705926,-64
1643450689154,4874.6705954,-61
1643450689154,4874.6705982,-57
1643450689154,4874.670601,-64
1643450689154,4874.6706038,-45
1643450689154,4874.6706066,-16
1643450689154,4874.6706094,-42
1643450689154,4874.6706123,-57
1643450689154,4874.6706151,-30
1643450689154,4874.6706179,-40
1643450689187,4874.6706209,-66
1643450689187,4874.6706238,-40
1643450689187,4874.6706266,7
1643450689187,4874.6706295,-45
1643450689187,4874.6706323,-137
1643450689187,4874.6706352,-95
1643450689187,4874.670638,-2
1643450689187,4874.6706411,28
1643450689187,4874.6706444,45
1643450689187,4874.6706472,16
1643450689209,4874.67065,-54
1643450689209,4874.6706527,-40
1643450689209,4874.6706555,28
1643450689209,4874.6706584,30
1643450689209,4874.6706613,-14
1643450689209,4874.670664,-30
1643450689209,4874.6706671,-30
1643450689209,4874.6706699,-57
1643450689209,4875.1711472,-40
1643450689209,4875.1711607,225
1643450689227,4875.1711655,798
1643450689227,4875.1711705,1354
1643450689227,4875.1711737,1380
1643450689227,4875.1711768,662
1643450689227,4875.1711818,-95
1643450689227,4875.1711867,-161
1643450689227,4875.1711915,-33
1643450689227,4875.1711945,-137
1643450689227,4875.1711975,-159
1643450689227,4875.1712025,-83
1643450689248,4875.1712062,-104
1643450689248,4875.1712092,-133
1643450689248,4875.1712142,-87
1643450689248,4875.1712188,-76
1643450689248,4875.1712235,-121
1643450689248,4875.1712282,-106
1643450689248,4875.1712329,-49
1643450689248,4875.1712375,-40
1643450689248,4875.1712423,-45
1643450689248,4875.1712454,-2
1643450689267,4875.1712484,35
1643450689267,4875.1712523,26
1643450689267,4875.1712554,21
1643450689267,4875.1712592,35
1643450689267,4875.1712623,73
1643450689267,4875.1712674,140
1643450689267,4875.1712705,187
1643450689267,4875.1712757,156
1643450689267,4875.1712789,175
1643450689267,4875.171282,299
1643450689286,4875.1712868,287
1643450689286,4875.1712909,142
1643450689286,4875.1712957,140
1643450689286,4875.1712995,237
1643450689286,4875.1713026,240
1643450689286,4875.1713074,199
1643450689286,4875.1713105,206
1643450689286,4875.1713152,180
1643450689286,4875.1713182,16
1643450689286,4875.1713213,-171
1643450689310,4875.1713261,-199
1643450689310,4875.1713308,-133
1643450689310,4875.1713356,-90
1643450689310,4875.1713387,-102
1643450689710,4875.1713417,-152
1643450689710,4875.1713446,-144
1643450689710,4875.1713475,-61
1643450689710,4875.1713504,-28
1643450689710,4875.1713532,-66
1643450689710,4875.1713561,-59
1643450689710,4875.171359,-40
1643450689710,4875.1713619,-52
1643450689710,4875.1713648,-38
1643450689710,4875.1713676,-59
1643450689731,4875.1713704,-87
1643450689731,4875.1713732,-23
1643450689731,4875.1713761,2
1643450689731,4875.1713789,-42
1643450689731,4875.1713817,-26
1643450689731,4875.1713846,-4
1643450689731,4875.1713876,-38
1643450689731,4875.1713907,-21
1643450689731,4875.1713937,2
1643450689731,4875.1713988,-23
1643450689755,4875.1714033,-40
1643450689755,4875.1714081,-19
1643450689755,4875.1714119,33
1643450689755,4875.1714151,45
1643450689755,4875.1714205,0
1643450689755,4875.1714234,-7
1643450689755,4875.1714486,-23
1643450689755,4875.7207815,-78
1643450689755,4875.7207953,-52
1643450689755,4875.7207987,21
1643450689777,4875.7208017,40
1643450689777,4875.7208047,23
1643450689777,4875.7208076,-14
1643450689777,4875.7208104,-35
1643450689777,4875.7208134,-7
1643450689777,4875.7208162,14
1643450689777,4875.720819,-19
1643450689777,4875.7208218,-54
1643450689777,4875.7208246,-35
1643450689777,4875.7208279,-11
1643450689800,4875.7208307,21
1643450689800,4875.7208336,292
1643450689800,4875.7208364,869
1643450689800,4875.7208888,1356
1643450689800,4875.7208954,1230
1643450689800,4875.7208985,434
1643450689800,4875.7209014,-213
1643450689800,4875.7209043,-171
1643450689800,4875.7209072,-64
1643450689800,4875.7209102,-173
1643450689822,4875.7209133,-166
1643450689822,4875.7209192,-85
1643450689822,4875.7209225,-73
1643450689822,4875.7209274,-78
1643450689822,4875.7209305,-83
1643450689822,4875.7209354,-121
1643450689822,4875.7209392,-121
1643450689822,4875.7209441,-35
1643450689822,4875.7209472,-4
1643450689822,4875.7209522,-38
1643450689844,4875.7209565,33
1643450689844,4875.7209596,102
1643450689844,4875.7209645,-14
1643450689844,4875.7209678,-111
1643450689844,4875.7209726,-7
1643450689844,4875.7209773,85
1643450689844,4875.7209825,68
1643450689844,4875.7209857,90
1643450689844,4875.7209908,163
1643450689844,4875.720994,211
1643450689866,4875.7209991,204
1643450689866,4875.7210022,182
1643450689866,4875.7210072,204
1643450689866,4875.7210103,228
1643450690399,4875.7210151,230
1643450690399,4875.7210182,240
1643450690399,4875.7210211,242
1643450690399,4875.7210241,204
1643450690399,4875.721027,137
1643450690399,4875.7210299,66
1643450690399,4875.7210327,-23
1643450690399,4875.7210357,-99
1643450690399,4875.7210386,-135
1643450690399,4875.7210416,-154
1643450690422,4875.7210445,-161
1643450690422,4875.7210473,-144
1643450690422,4875.7210502,-123
1643450690422,4875.7210531,-95
1643450690422,4875.7210559,-42
1643450690422,4875.7210588,-49
1643450690422,4875.7210617,-135
1643450690422,4875.7210645,-133
1643450690422,4875.7210673,-83
1643450690422,4875.7210702,-78
1643450690442,4875.7210731,-57
1643450690442,4875.721076,-54
1643450690442,4875.7210789,-106
1643450690442,4875.7210817,-123
1643450690442,4875.7210846,-80
1643450690442,4875.7210874,-28
1643450690442,4876.4193404,-2
1643450690442,4876.419353,2
1643450690442,4876.4193565,-35
1643450690442,4876.4193595,-95
1643450690465,4876.4193624,-128
1643450690465,4876.4193652,-149
1643450690465,4876.4193681,-104
1643450690465,4876.419371,-49
1643450690465,4876.4193738,-87
1643450690465,4876.4193767,-121
1643450690465,4876.4193796,-116
1643450690465,4876.4193824,-80
1643450690465,4876.4193853,4
1643450690465,4876.4193881,-28
1643450690487,4876.4193909,-161
1643450690487,4876.4193937,-114
1643450690487,4876.4193965,28
1643450690487,4876.4193994,-45
1643450690487,4876.4194025,-142
1643450690487,4876.4194053,-30
1643450690487,4876.4194081,19
1643450690487,4876.419411,-85
1643450690487,4876.4194138,-85
1643450690487,4876.4194167,-11
1643450690509,4876.4194195,-19
1643450690509,4876.4194223,-35
1643450690509,4876.4194252,-54
1643450690509,4876.4194281,-66
1643450690509,4876.419431,142
1643450690509,4876.4194339,658
1643450690509,4876.4194368,1209
1643450690509,4876.4194396,1302
1643450690509,4876.4194424,665
1643450690509,4876.4194452,-76
1643450690530,4876.419448,-163
1643450690530,4876.4194508,-19
1643450690530,4876.4194537,-61
1643450690530,4876.4194565,-30
1643450690530,4876.4194593,-16
1643450690530,4876.4194622,-140
1643450690530,4876.4194651,-159
1643450690530,4876.4194679,-83
1643450690530,4876.4194707,-92
1643450690530,4876.4194736,-99
1643450690553,4876.4194764,-61
1643450690553,4876.4194793,-54
1643450690553,4876.4194822,-49
1643450690553,4876.419485,-33
1643450690887,4876.4194878,-23
1643450690887,4876.4194907,14
1643450690887,4876.4194936,66
1643450690887,4876.4194964,76
1643450690887,4876.4194994,40
1643450690887,4876.4195023,61
1643450690887,4876.4195051,147
1643450690887,4876.4195079,168
1643450690887,4876.4195107,130
1643450690887,4876.4195135,159
1643450690909,4876.4195163,232
1643450690909,4876.4195191,268
1643450690909,4876.419522,273
1643450690909,4876.4195248,232
1643450690909,4876.4195277,190
1643450690909,4876.4195305,209
1643450690909,4876.4195335,220
1643450690909,4876.4195363,175
1643450690909,4876.4195391,85
1643450690909,4876.4195419,14
1643450690931,4876.4195447,-19
1643450690931,4876.4195476,-85
1643450690931,4876.4195504,-121
1643450690931,4876.4195532,-114
1643450690931,4876.419556,-152
1643450690931,4876.9157546,-159
1643450690931,4876.915768,-99
1643450690931,4876.9157729,-95
1643450690931,4876.9157784,-130
1643450690931,4876.9157815,-125
1643450690954,4876.9157864,-104
1643450690954,4876.9157903,-87
1643450690954,4876.9157943,-73
1643450690954,4876.9157973,-76
1643450690954,4876.9158012,-95
1643450690954,4876.9158042,-78
1643450690954,4876.9158081,-47
1643450690954,4876.9158111,-92
1643450690954,4876.9158159,-142
1643450690954,4876.9158205,-99
1643450690977,4876.9158252,-42
1643450690977,4876.9158298,-66
1643450690977,4876.9158346,-130
1643450690977,4876.9158376,-116
1643450690977,4876.9158406,-52
1643450690977,4876.9158446,-49
1643450690977,4876.9158476,-73
1643450690977,4876.9158515,-57
1643450690977,4876.9158544,-59
1643450690977,4876.9158597,-109
1643450690998,4876.9158629,-133
1643450690998,4876.9158666,-109
1643450690998,4876.9158702,-68
1643450690998,4876.9158749,-30
1643450690998,4876.9158778,-16
1643450690998,4876.9158808,-33
1643450690998,4876.9158848,-61
1643450690998,4876.9158878,-71
1643450690998,4876.9158926,-35
1643450690998,4876.9158954,-9
1643450691021,4876.9158984,-49
1643450691021,4876.9159018,-78
1643450691021,4876.9159067,-40
1643450691021,4876.9159104,-9
1643450691021,4876.9159151,137
1643450691021,4876.9159198,667
1643450691021,4876.9159255,1328
1643450691021,4876.9159285,1390
1643450691021,4876.9159323,636
1643450691021,4876.9159354,-140
1643450691045,4876.9159394,-192
1643450691045,4876.9159425,7
1643450691045,4876.9159473,-102
1643450691045,4876.9159518,-192
1643450691447,4876.9159566,-104
1643450691447,4876.9159602,-95
1643450691447,4876.9159629,-135
1643450691447,4876.9159657,-97
1643450691447,4876.9159685,-45
1643450691447,4876.9159712,-23
1643450691447,4876.915974,-33
1643450691447,4876.9159768,-76
1643450691447,4876.9159795,-80
1643450691447,4876.9159824,-38
1643450691466,4876.9159851,-33
1643450691466,4876.9159879,-28
1643450691466,4876.9159908,23
1643450691466,4876.9159936,59
1643450691466,4876.9159967,71
1643450691466,4876.9160002,92
1643450691466,4876.916003,109
1643450691466,4876.9160068,109
1643450691466,4876.9160096,121
1643450691466,4876.9160127,171
1643450691488,4876.9160181,209
1643450691488,4876.9160211,220
1643450691488,4876.9160249,242
1643450691488,4876.9160279,244
1643450691488,4877.472064,237
1643450691488,4877.4720775,220
1643450691488,4877.472081,173
1643450691488,4877.4720841,118
1643450691488,4877.4720871,64
1643450691488,4877.4720902,0
1643450691512,4877.4720932,-68
1643450691512,4877.4721024,-133
1643450691512,4877.4721053,-175
1643450691512,4877.4721083,-180
1643450691512,4877.4721112,-159
1643450691512,4877.472114,-140
1643450691512,4877.472117,-114
1643450691512,4877.4721199,-90
1643450691512,4877.4721228,-116
1643450691512,4877.4721256,-154
1643450691532,4877.4721285,-144
1643450691532,4877.4721315,-111
1643450691532,4877.4721343,-104
1643450691532,4877.4721372,-125
1643450691532,4877.47214,-123
1643450691532,4877.4721429,-90
1643450691532,4877.4721457,-66
1643450691532,4877.4721485,-40
1643450691532,4877.4721514,-59
1643450691532,4877.4721542,-149
1643450691554,4877.472157,-166
1643450691554,4877.4721599,-80
1643450691554,4877.4721627,-49
1643450691554,4877.4721655,-71
1643450691554,4877.4721683,-47
1643450691554,4877.4721713,2
1643450691554,4877.4721741,-23
1643450691554,4877.472177,-95
1643450691554,4877.4721799,-106
1643450691554,4877.4721827,-73
1643450691576,4877.4721855,-57
1643450691576,4877.4721884,-83
1643450691576,4877.4721949,-87
1643450691576,4877.4722001,-4
1643450691576,4877.4722053,83
1643450691576,4877.4722102,57
1643450691576,4877.472216,-42
1643450691576,4877.4722209,-83
1643450691576,4877.4722542,-16
1643450691576,4877.4722605,21
1643450691598,4877.4722654,-9
1643450691598,4877.4722702,-2
1643450691598,4877.472275,42
1643450691598,4877.4722798,30
1643450692042,4877.4722847,45
1643450692042,4877.4722884,358
1643450692042,4877.4723295,969
1643450692042,4877.4723367,1428
1643450692042,4877.4723402,1216
1643450692042,4877.4723432,384
1643450692042,4877.4723462,-168
1643450692042,4877.4723492,-68
1643450692042,4877.4723521,11
1643450692042,4877.472355,-109
1643450692064,4877.472358,-109
1643450692064,4877.4723609,-45
1643450692064,4877.4723638,-47
1643450692064,4877.4723667,-68
1643450692064,4877.4723696,-54
1643450692064,4877.4723724,-26
1643450692064,4877.4723753,-28
1643450692064,4877.4723782,-30
1643450692064,4877.4723813,0
1643450692064,4877.4723842,-4
1643450692086,4877.4723871,-28
1643450692086,4877.4723903,14
1643450692086,4877.4723933,40
1643450692086,4878.0656389,38
1643450692086,4878.0656517,92
1643450692086,4878.0656552,154
1643450692086,4878.0656583,133
1643450692086,4878.0656626,97
1643450692086,4878.0656657,154
1643450692086,4878.0656707,209
1643450692110,4878.0656736,159
1643450692110,4878.0656768,152
1643450692110,4878.0656816,225
1643450692110,4878.0656865,244
1643450692110,4878.0656913,235
1643450692110,4878.0656944,223
1643450692110,4878.0656992,182
1643450692110,4878.0657036,171
1643450692110,4878.0657084,130
1643450692110,4878.0657113,21
1643450692131,4878.0657144,-7
1643450692131,4878.0657192,7
1643450692131,4878.0657231,-52
1643450692131,4878.0657279,-87
1643450692131,4878.0657324,-104
1643450692131,4878.0657372,-130
1643450692131,4878.0657416,-152
1643450692131,4878.0657455,-204
1643450692131,4878.0657486,-168
1643450692131,4878.0657524,-64
1643450692156,4878.0657554,-57
1643450692156,4878.0657589,-26
1643450692156,4878.065762,40
1643450692156,4878.0657668,-42
1643450692156,4878.0657713,-123
1643450692156,4878.0657761,-76
1643450692156,4878.0657805,-26
1643450692156,4878.0657854,-64
1643450692156,4878.0657897,-99
1643450692156,4878.0657948,-47
1643450692176,4878.0657994,9
1643450692176,4878.0658043,19
1643450692176,4878.0658074,-38
1643450692176,4878.0658114,-87
1643450692176,4878.0658144,-21
1643450692176,4878.0658184,-14
