unixTime,lslTime,ECG
1643468654571,22839.81843,-49
1643468654571,22839.818433,-44
1643468654571,22839.8184359,-40
1643468654571,22839.8184389,-37
1643468654571,22839.8184418,-14
1643468654571,22839.8184477,16
1643468654571,22839.8184593,32
1643468654571,22839.818463,28
1643468654571,22839.818466,16
1643468654571,22839.8184689,0
1643468654599,22839.8187899,-16
1643468654599,22839.8187975,-16
1643468654599,22839.8188009,-9
1643468654599,22839.8188061,-7
1643468654599,22839.8188093,-7
1643468654599,22839.8188142,-7
1643468654599,22839.8188174,-2
1643468654599,22839.8188225,4
1643468654599,22839.8188257,65
1643468654599,22839.8188307,259
1643468654624,22839.8188338,520
1643468654624,22839.8188388,664
1643468654624,22839.818842,570
1643468654624,22839.818847,164
1643468654624,22839.8188502,-310
1643468654624,22839.8188556,-351
1643468654624,22839.8188588,-80
1643468654624,22839.8188639,-4
1643468654624,22839.8188671,-63
1643468654624,22839.8188721,-35
1643468654647,22839.8188752,-7
1643468654647,22839.8188802,-21
1643468654647,22839.8188834,-7
1643468654647,22839.8188883,14
1643468654647,22839.8188915,9
1643468654647,22839.8188964,14
1643468654647,22839.8188995,25
1643468654647,22839.8189046,30
1643468654647,22839.8189078,32
1643468654647,22839.818913,42
1643468654667,22839.8189162,54
1643468654667,22839.818922,63
1643468654667,22839.8189251,70
1643468654667,22839.8189302,75
1643468654667,22839.8189333,87
1643468654667,22839.8189383,106
1643468654667,22839.8189415,115
1643468654667,22839.8189463,122
1643468654667,22839.8189494,134
1643468654667,22839.8189545,143
1643468654687,22839.8189576,148
1643468654687,22839.8189624,146
1643468654687,22839.8189655,136
1643468654687,22839.8189704,124
1643468654687,22839.8189736,106
1643468654687,22839.8189787,91
1643468654687,22839.8189818,89
1643468654687,22839.818987,89
1643468654687,22839.8189903,77
1643468654687,22839.8189951,61
1643468654708,22839.8189983,47
1643468654708,22840.4663112,23
1643468654708,22840.4663235,4
1643468654708,22840.4663272,2
1643468654708,22840.4663304,4
1643468654708,22840.466335,4
1643468654708,22840.466338,7
1643468654708,22840.4663411,-14
1643468654708,22840.4663443,-44
1643468654708,22840.4663479,-32
1643468654740,22840.4663509,-7
1643468654740,22840.466354,-9
1643468654740,22840.466357,-14
1643468654740,22840.46636,-14
1643468655157,22840.466363,-16
1643468655157,22840.4663659,-18
1643468655157,22840.4663687,-18
1643468655157,22840.4663716,-18
1643468655157,22840.4663744,-23
1643468655157,22840.4663773,-30
1643468655157,22840.4663801,-28
1643468655157,22840.466383,-25
1643468655157,22840.4663858,-35
1643468655157,22840.4663887,-32
1643468655190,22840.4663915,-25
1643468655190,22840.4663943,-28
1643468655190,22840.4663972,-25
1643468655190,22840.4664,-28
1643468655190,22840.4664028,-32
1643468655190,22840.4664064,-23
1643468655190,22840.4664094,-14
1643468655190,22840.4664125,-16
1643468655190,22840.4664156,-18
1643468655190,22840.4664187,-14
1643468655224,22840.4664217,-9
1643468655224,22840.4664248,-4
1643468655224,22840.4664291,-7
1643468655224,22840.4664331,-4
1643468655224,22840.4664395,0
1643468655224,22840.4664427,7
1643468655224,22840.4664457,21
1643468655224,22840.4664487,37
1643468655224,22840.4664518,47
1643468655224,22840.4664549,54
1643468655256,22840.466458,47
1643468655256,22840.4664634,21
1643468655256,22840.4664664,14
1643468655256,22840.4664694,18
1643468655256,22840.4664725,9
1643468655256,22840.4664769,2
1643468655256,22840.46648,16
1643468655256,22840.4664831,23
1643468655256,22840.4664861,16
1643468655256,22840.4664892,30
1643468655290,22840.4664922,124
1643468655290,22840.4664952,362
1643468655290,22840.4664983,624
1643468655290,22840.4665013,706
1643468655290,22840.4665075,508
1643468655290,22840.4665125,-7
1643468655290,22840.466516,-424
1643468655290,22840.46652,-278
1643468655290,22840.4665231,-11
1643468655290,22840.4665259,-44
1643468655324,22840.4665288,-94
1643468655324,22840.4665319,-30
1643468655324,22840.466535,-28
1643468655324,22840.4665395,-49
1643468655324,22840.4665425,-21
1643468655324,22840.4665455,-2
1643468655324,22840.4665487,-7
1643468655324,22840.4665523,0
1643468655324,22840.4665576,2
1643468655324,22840.4665607,2
1643468655357,22841.0655469,16
1643468655357,22841.0656677,30
1643468655357,22841.0656727,35
1643468655357,22841.0656758,40
1643468655357,22841.0656787,51
1643468655357,22841.0656815,58
1643468655357,22841.0656998,70
1643468655357,22841.0657036,77
1643468655357,22841.0657065,70
1643468655357,22841.0657093,80
1643468655391,22841.065712,115
1643468655391,22841.0657148,110
1643468655391,22841.0657176,75
1643468655391,22841.0657203,68
1643468655724,22841.0657294,82
1643468655724,22841.0657441,84
1643468655724,22841.0657475,65
1643468655724,22841.0657505,35
1643468655724,22841.0657533,7
1643468655724,22841.0657561,-7
1643468655724,22841.065759,-7
1643468655724,22841.0657618,-18
1643468655724,22841.0657645,-42
1643468655724,22841.0657843,-56
1643468655757,22841.0657887,-63
1643468655757,22841.0657916,-65
1643468655757,22841.0657945,-63
1643468655757,22841.0657973,-68
1643468655757,22841.0658001,-65
1643468655757,22841.0658029,-58
1643468655757,22841.0658058,-61
1643468655757,22841.0658367,-58
1643468655757,22841.0658415,-49
1643468655757,22841.0658444,-42
1643468655791,22841.0658473,-28
1643468655791,22841.0658501,-23
1643468655791,22841.0658529,-30
1643468655791,22841.0658557,-28
1643468655791,22841.0658585,-18
1643468655791,22841.0658612,-28
1643468655791,22841.0658734,-35
1643468655791,22841.065884,-25
1643468655791,22841.0658876,-23
1643468655791,22841.0658904,-32
1643468655824,22841.0659061,-30
1643468655824,22841.0659097,-23
1643468655824,22841.0659125,-30
1643468655824,22841.0659153,-30
1643468655824,22841.0659181,-23
1643468655824,22841.0659208,-32
1643468655824,22841.0659236,-47
1643468655824,22841.0659264,-40
1643468655824,22841.0659292,-23
1643468655824,22841.065932,-25
1643468655858,22841.0659474,-35
1643468655858,22841.065952,-35
1643468655858,22841.0659548,-25
1643468655858,22841.0659576,-21
1643468655858,22841.0659711,-14
1643468655858,22841.0659756,2
1643468655858,22841.0659784,25
1643468655858,22841.0659813,44
1643468655858,22841.0659843,40
1643468655858,22841.0659871,21
1643468655890,22841.0659899,4
1643468655890,22841.0659984,-2
1643468655890,22841.0660026,-7
1643468655890,22841.0660055,-11
1643468655890,22841.0660084,-11
1643468655890,22841.0660115,2
1643468655890,22841.0660143,7
1643468655890,22841.0660171,2
1643468655890,22841.0660199,4
1643468655890,22841.6164818,44
1643468655927,22841.6164946,179
1643468655927,22841.6164983,409
1643468655927,22841.6165035,596
1643468655927,22841.6165065,593
1643468655927,22841.6165095,289
1643468655927,22841.6165126,-209
1643468655927,22841.6165175,-402
1643468655927,22841.6165206,-157
1643468655927,22841.6165245,-7
1643468655927,22841.6165274,-96
1643468655957,22841.6165329,-98
1643468655957,22841.6165359,-23
1643468655957,22841.6165389,-32
1643468655957,22841.6165419,-42
1643468656256,22841.6165446,-7
1643468656256,22841.6165475,-14
1643468656256,22841.6165503,-28
1643468656256,22841.6165531,-4
1643468656256,22841.616556,7
1643468656256,22841.6165588,7
1643468656256,22841.6165616,18
1643468656256,22841.6165644,21
1643468656256,22841.6165671,7
1643468656256,22841.6165699,23
1643468656290,22841.6165727,47
1643468656290,22841.6165755,37
1643468656290,22841.6165783,42
1643468656290,22841.616581,70
1643468656290,22841.6165838,77
1643468656290,22841.6165866,70
1643468656290,22841.6165893,84
1643468656290,22841.6165921,103
1643468656290,22841.6165949,96
1643468656290,22841.6165976,103
1643468656324,22841.6166004,136
1643468656324,22841.6166031,131
1643468656324,22841.6166065,101
1643468656324,22841.6166093,101
1643468656324,22841.6166121,106
1643468656324,22841.6166149,77
1643468656324,22841.6166177,42
1643468656324,22841.6166204,18
1643468656324,22841.6166231,11
1643468656324,22841.6166259,11
1643468656360,22841.6166287,-11
1643468656360,22841.6166321,-23
1643468656360,22841.6166349,-9
1643468656360,22841.6166376,-9
1643468656360,22841.6166404,-21
1643468656360,22841.6166431,-7
1643468656360,22841.616646,11
1643468656360,22841.6166488,11
1643468656360,22841.6166516,14
1643468656360,22841.6166544,21
1643468656391,22841.6166571,21
1643468656391,22841.6166599,21
1643468656391,22841.6166627,23
1643468656391,22841.6166655,25
1643468656391,22841.6166683,30
1643468656391,22841.616671,30
1643468656391,22841.6166738,21
1643468656391,22841.6166766,16
1643468656391,22841.6166794,23
1643468656391,22841.6166822,28
1643468656429,22841.616685,16
1643468656429,22841.6166886,14
1643468656429,22841.6166914,23
1643468656429,22841.6166941,21
1643468656429,22841.6166969,16
1643468656429,22841.6166996,11
1643468656429,22841.6167024,7
1643468656429,22841.6167051,9
1643468656429,22842.167936,4
1643468656429,22842.1679502,16
1643468656461,22842.167954,56
1643468656461,22842.1679592,68
1643468656461,22842.1679624,58
1643468656461,22842.1679678,54
1643468656461,22842.1679709,37
1643468656461,22842.1679757,16
1643468656461,22842.1679787,4
1643468656461,22842.1679839,-2
1643468656461,22842.1679869,0
1643468656461,22842.167992,4
1643468656492,22842.167995,11
1643468656492,22842.1679999,11
1643468656492,22842.1680031,-7
1643468656492,22842.168008,9
1643468656757,22842.1680112,143
1643468656757,22842.1680141,381
1643468656757,22842.1680169,607
1643468656757,22842.1680197,645
1643468656757,22842.1680224,336
1643468656757,22842.1680252,-207
1643468656757,22842.168028,-473
1643468656757,22842.1680308,-268
1643468656757,22842.1680336,-65
1643468656757,22842.1680364,-80
1643468656790,22842.1680391,-82
1643468656790,22842.1680418,-40
1643468656790,22842.1680446,-51
1643468656790,22842.1680473,-65
1643468656790,22842.16805,-35
1643468656790,22842.1680527,-21
1643468656790,22842.1680554,-28
1643468656790,22842.1680582,-30
1643468656790,22842.1680609,-25
1643468656790,22842.1680636,-25
1643468656823,22842.1680664,-40
1643468656823,22842.1680692,-37
1643468656823,22842.1680719,-21
1643468656823,22842.1680748,0
1643468656823,22842.1680779,2
1643468656823,22842.1680807,-21
1643468656823,22842.1680834,-9
1643468656823,22842.1680863,30
1643468656823,22842.168089,30
1643468656823,22842.1680918,25
1643468656858,22842.1680948,28
1643468656858,22842.1680976,18
1643468656858,22842.1681007,25
1643468656858,22842.1681068,51
1643468656858,22842.168112,56
1643468656858,22842.168115,44
1643468656858,22842.168118,42
1643468656858,22842.1681209,44
1643468656858,22842.1681238,40
1643468656858,22842.1681267,23
1643468656891,22842.1681296,2
1643468656891,22842.1681324,-7
1643468656891,22842.1681354,2
1643468656891,22842.1681405,7
1643468656891,22842.1681436,0
1643468656891,22842.1681496,9
1643468656891,22842.1681527,28
1643468656891,22842.1681557,11
1643468656891,22842.1681614,-11
1643468656891,22842.1681645,0
1643468656924,22842.1681685,14
1643468656924,22842.1681712,9
1643468656924,22842.1681744,9
1643468656924,22842.168178,25
1643468656924,22842.1681813,30
1643468656924,22842.1681867,23
1643468656924,22842.1681898,23
1643468656924,22842.6684572,28
1643468656924,22842.6684686,30
1643468656924,22842.6684721,18
1643468656957,22842.6684749,2
1643468656957,22842.6684778,0
1643468656957,22842.6684806,14
1643468656957,22842.6684835,23
1643468656957,22842.6684863,25
1643468656957,22842.6684894,32
1643468656957,22842.6684922,32
1643468656957,22842.6684949,35
1643468656957,22842.6684978,58
1643468656957,22842.6685006,77
1643468656990,22842.6685048,61
1643468656990,22842.6685088,49
1643468656990,22842.6685133,40
1643468656990,22842.6685172,9
1643468657323,22842.6685201,0
1643468657323,22842.6685229,18
1643468657323,22842.6685257,-2
1643468657323,22842.6685284,-35
1643468657323,22842.6685351,-9
1643468657323,22842.6685382,30
1643468657323,22842.6685411,14
1643468657323,22842.668544,2
1643468657323,22842.6685468,103
1643468657323,22842.6685496,320
1643468657357,22842.6685523,593
1643468657357,22842.6685551,805
1643468657357,22842.6685578,584
1643468657357,22842.6685607,-129
1643468657357,22842.6685635,-548
1643468657357,22842.6685664,-332
1643468657357,22842.6685694,-94
1643468657357,22842.6685725,-108
1643468657357,22842.6685754,-146
1643468657357,22842.6685781,-122
1643468657390,22842.6685808,-87
1643468657390,22842.6685837,-61
1643468657390,22842.6685864,-49
1643468657390,22842.6685893,-44
1643468657390,22842.668592,-30
1643468657390,22842.6685948,-21
1643468657390,22842.6685975,-32
1643468657390,22842.6686002,-35
1643468657390,22842.6686033,-28
1643468657390,22842.6686062,-23
1643468657423,22842.668609,-11
1643468657423,22842.6686118,0
1643468657423,22842.6686146,4
1643468657423,22842.6686174,14
1643468657423,22842.6686202,28
1643468657423,22842.668623,44
1643468657423,22842.6686257,54
1643468657423,22842.6686285,47
1643468657423,22842.6686313,47
1643468657423,22842.6686342,63
1643468657456,22842.6686371,84
1643468657456,22842.6686403,96
1643468657456,22842.6686433,87
1643468657456,22842.6686463,80
1643468657456,22842.6686491,82
1643468657456,22842.6686519,77
1643468657456,22842.6686547,70
1643468657456,22842.6686575,63
1643468657456,22842.6686603,54
1643468657456,22842.6686718,40
1643468657490,22842.6686891,25
1643468657490,22842.6686937,14
1643468657490,22842.6686969,7
1643468657490,22842.6686997,2
1643468657490,22842.6687026,0
1643468657490,22842.6687058,-2
1643468657490,22843.2191033,-7
1643468657490,22843.2191168,-11
1643468657490,22843.2191203,-14
1643468657490,22843.2191255,-11
1643468657523,22843.2191288,-7
1643468657523,22843.2192175,-2
1643468657523,22843.2192253,-4
1643468657523,22843.21923,-9
1643468657523,22843.2192331,-11
1643468657523,22843.2192362,0
1643468657523,22843.2192401,0
1643468657523,22843.2192432,-28
1643468657523,22843.2192471,-54
1643468657523,22843.21925,-56
1643468657557,22843.219253,-54
1643468657557,22843.2192717,-40
1643468657557,22843.219278,-7
1643468657557,22843.2192812,9
1643468657950,22843.219286,-4
1643468657950,22843.219289,-18
1643468657950,22843.2192918,-40
1643468657950,22843.2192948,-58
1643468657950,22843.2192976,-61
1643468657950,22843.2193004,-49
1643468657950,22843.2193033,-44
1643468657950,22843.2193061,-44
1643468657950,22843.2193089,-37
1643468657950,22843.2193118,-32
1643468657970,22843.2193146,-35
1643468657970,22843.2193174,-7
1643468657970,22843.2193202,122
1643468657970,22843.2193231,362
1643468657970,22843.2193259,593
1643468657970,22843.2193287,621
1643468657970,22843.2193315,325
1643468657970,22843.2193345,-181
1643468657970,22843.2193376,-433
1643468657970,22843.2193416,-252
1643468657991,22843.2193446,-68
1643468657991,22843.2193476,-82
1643468657991,22843.2193516,-80
1643468657991,22843.2193546,-35
1643468657991,22843.2193576,-42
1643468657991,22843.2193605,-47
1643468657991,22843.2193644,-16
1643468657991,22843.2193674,7
1643468657991,22843.2193723,7
1643468657991,22843.2193752,2
1643468658012,22843.2193783,-7
1643468658012,22843.2193813,-4
1643468658012,22843.2193854,23
1643468658012,22843.2193883,40
1643468658012,22843.2193922,49
1643468658012,22843.2193951,68
1643468658012,22843.2193999,87
1643468658012,22843.2194029,98
1643468658012,22843.2194059,94
1643468658012,22843.2194088,89
1643468658035,22843.2194118,115
1643468658035,22843.2194157,143
1643468658035,22843.2194186,143
1643468658035,22843.2194216,164
1643468658035,22843.2194256,183
1643468658035,22843.2194287,150
1643468658035,22843.2194335,127
1643468658035,22843.2194366,164
1643468658035,22843.2194397,179
1643468658035,22843.2194435,141
1643468658057,22843.2194477,129
1643468658057,22843.2194507,124
1643468658057,22843.2194547,106
1643468658057,22843.2194577,101
1643468658057,22843.2194607,96
1643468658057,22843.8652534,70
1643468658057,22843.8652659,58
1643468658057,22843.8652694,63
1643468658057,22843.8652724,54
1643468658057,22843.8652753,58
1643468658079,22843.8652782,82
1643468658079,22843.8652811,75
1643468658079,22843.865284,40
1643468658079,22843.865287,58
1643468658079,22843.8652899,110
1643468658079,22843.8652927,98
1643468658079,22843.8652956,-2
1643468658079,22843.8652986,-73
1643468658079,22843.8653018,-30
1643468658079,22843.8653049,-9
1643468658101,22843.8653115,-47
1643468658101,22843.8653147,-47
1643468658101,22843.865322,-11
1643468658101,22843.8653251,11
1643468658458,22843.8653324,18
1643468658458,22843.8653354,-7
1643468658458,22843.8653382,-18
1643468658458,22843.8653412,9
1643468658458,22843.8653441,-7
1643468658458,22843.8653469,-58
1643468658458,22843.8653497,-58
1643468658458,22843.8653526,-49
1643468658458,22843.8653555,-63
1643468658458,22843.8653584,-47
1643468658479,22843.8653614,7
1643468658479,22843.8653642,7
1643468658479,22843.865367,-40
1643468658479,22843.8654247,42
1643468658479,22843.8654344,343
1643468658479,22843.865439,699
1643468658479,22843.865442,883
1643468658479,22843.8654449,676
1643468658479,22843.8654477,14
1643468658479,22843.8654507,-485
1643468658502,22843.8654536,-327
1643468658502,22843.8654564,-82
1643468658502,22843.8654593,-110
1643468658502,22843.8654621,-143
1643468658502,22843.865465,-143
1643468658502,22843.8654678,-150
1643468658502,22843.8654709,-131
1643468658502,22843.8654738,-148
1643468658502,22843.8654767,-181
1643468658502,22843.8654796,-80
1643468658525,22843.8654825,51
1643468658525,22843.8654854,14
1643468658525,22843.8654883,-61
1643468658525,22843.8654912,-30
1643468658525,22843.865494,-16
1643468658525,22843.8654968,-70
1643468658525,22843.8654997,-82
1643468658525,22843.8655025,-58
1643468658525,22843.8655053,-84
1643468658525,22843.8655082,-73
1643468658546,22843.8655111,40
1643468658546,22843.865514,103
1643468658546,22843.8655168,61
1643468658546,22843.8655197,37
1643468658546,22843.8655226,68
1643468658546,22843.8655258,80
1643468658546,22843.8655288,54
1643468658546,22843.8655317,30
1643468658546,22843.8655345,14
1643468658546,22843.8655375,-7
1643468658568,22843.8655403,-4
1643468658568,22843.8655432,16
1643468658568,22843.865546,2
1643468658568,22843.8655489,-35
1643468658568,22844.3636989,-30
1643468658568,22844.3637125,-28
1643468658568,22844.3637175,-84
1643468658568,22844.3637225,-98
1643468658568,22844.3637272,-58
1643468658568,22844.3637312,-63
1643468658590,22844.3637342,-73
1643468658590,22844.3637372,-40
1643468658590,22844.3637402,-37
1643468658590,22844.3637431,-63
1643468658590,22844.3637461,-56
1643468658590,22844.363749,-37
1643468658590,22844.363752,-35
1643468658590,22844.3637549,-28
1643468658590,22844.3637579,-25
1643468658590,22844.3637609,-49
1643468658613,22844.3637648,-80
1643468658613,22844.3637677,-65
1643468658613,22844.3637707,-32
1643468658613,22844.3637736,-40
1643468659013,22844.3637765,-30
1643468659013,22844.3637794,-9
1643468659013,22844.3637821,-16
1643468659013,22844.3637849,-35
1643468659013,22844.3637875,-18
1643468659013,22844.3637903,7
1643468659013,22844.3637931,-30
1643468659013,22844.3637958,-56
1643468659013,22844.3637985,-16
1643468659013,22844.3638013,-21
1643468659045,22844.3638041,-65
1643468659045,22844.3638068,-47
1643468659045,22844.3638095,-23
1643468659045,22844.3638122,-47
1643468659045,22844.3638149,-73
1643468659045,22844.3638176,-32
1643468659045,22844.3638204,179
1643468659045,22844.3638231,485
1643468659045,22844.3638258,645
1643468659045,22844.363831,591
1643468659078,22844.3638339,223
1643468659078,22844.3638369,-329
1643468659078,22844.3638398,-449
1643468659078,22844.3638427,-141
1643468659078,22844.3638457,-47
1643468659078,22844.3638487,-124
1643468659078,22844.3638516,-75
1643468659078,22844.3638546,-37
1643468659078,22844.3638574,-73
1643468659078,22844.3638603,-70
1643468659112,22844.3638632,-42
1643468659112,22844.3638661,-47
1643468659112,22844.363869,-77
1643468659112,22844.363872,-68
1643468659112,22844.3638749,-25
1643468659112,22844.363878,2
1643468659112,22844.3638809,4
1643468659112,22844.3638838,-4
1643468659112,22844.3638869,0
1643468659112,22844.3638924,0
1643468659145,22844.3638953,-42
1643468659145,22844.3638984,-42
1643468659145,22844.3639013,42
1643468659145,22844.3639043,82
1643468659145,22844.3639073,54
1643468659145,22844.3639104,77
1643468659145,22844.3639156,108
1643468659145,22844.3639184,89
1643468659145,22844.3639214,70
1643468659145,22844.3639264,54
1643468659179,22844.3639295,37
1643468659179,22844.3639325,35
1643468659179,22844.3639355,44
1643468659179,22844.9140226,73
1643468659179,22844.9140373,89
1643468659179,22844.9140413,49
1643468659179,22844.914047,0
1643468659179,22844.9140503,-11
1643468659179,22844.9140553,-21
1643468659179,22844.9140584,-35
1643468659212,22844.9140634,-56
1643468659212,22844.9140666,-91
1643468659212,22844.9140717,-120
1643468659212,22844.9140748,-77
1643468659212,22844.9140799,0
1643468659212,22844.9140832,-11
1643468659212,22844.9140882,-61
1643468659212,22844.9140913,-42
1643468659212,22844.9140968,-30
1643468659212,22844.9141009,-56
1643468659245,22844.9141059,-70
1643468659245,22844.914109,-61
1643468659245,22844.9141139,-23
1643468659245,22844.9141171,-7
1643468659611,22844.914122,-18
1643468659611,22844.9141251,2
1643468659611,22844.914128,0
1643468659611,22844.9141309,-40
1643468659611,22844.9141337,-40
1643468659611,22844.9141366,-23
1643468659611,22844.9141395,-16
1643468659611,22844.9141423,11
1643468659611,22844.9141453,28
1643468659611,22844.9141482,44
1643468659646,22844.9141512,70
1643468659646,22844.9141541,23
1643468659646,22844.914157,-35
1643468659646,22844.9141599,-23
1643468659646,22844.9141628,-9
1643468659646,22844.9141657,-30
1643468659646,22844.9141686,-32
1643468659646,22844.9141716,2
1643468659646,22844.9141744,2
1643468659646,22844.9141773,-18
1643468659678,22844.9141803,108
1643468659678,22844.9141833,391
1643468659678,22844.9141863,619
1643468659678,22844.9141957,687
1643468659678,22844.9142016,490
1643468659678,22844.9142048,-51
1643468659678,22844.9142092,-445
1643468659678,22844.9142123,-266
1643468659678,22844.9142163,14
1643468659678,22844.9142194,-2
1643468659712,22844.9142235,-75
1643468659712,22844.9142265,-61
1643468659712,22844.9142295,-51
1643468659712,22844.9142325,-54
1643468659712,22844.9142356,-49
1643468659712,22844.9142396,-37
1643468659712,22844.9142426,2
1643468659712,22844.9142458,28
1643468659712,22844.9142497,23
1643468659712,22844.9142527,25
1643468659745,22844.9142559,40
1643468659745,22844.9142608,44
1643468659745,22844.914264,18
1643468659745,22844.9142683,-14
1643468659745,22844.9142714,30
1643468659745,22844.9142744,115
1643468659745,22844.9142775,110
1643468659745,22844.9142805,75
1643468659745,22844.9142836,106
1643468659745,22844.9142882,122
1643468659779,22844.9142914,103
1643468659779,22844.9142944,108
1643468659779,22845.5129575,127
1643468659779,22845.5129705,136
1643468659779,22845.5129752,129
1643468659779,22845.5129804,103
1643468659779,22845.5129841,87
1643468659779,22845.5129873,84
1643468659779,22845.512992,54
1643468659779,22845.5129949,32
1643468659813,22845.5129979,32
1643468659813,22845.5130019,7
1643468659813,22845.513005,-23
1643468659813,22845.5130098,-7
1643468659813,22845.5130128,16
1643468659813,22845.5130159,-4
1643468659813,22845.5130207,-18
1643468659813,22845.5130255,-2
1643468659813,22845.5130307,21
1643468659813,22845.5130337,21
1643468659845,22845.5130368,-2
1643468659845,22845.5130404,-7
1643468659845,22845.5130434,14
1643468659845,22845.5130484,37
1643468660104,22845.5130515,58
1643468660104,22845.5130545,73
1643468660104,22845.5130573,54
1643468660104,22845.5130601,32
1643468660104,22845.513063,35
1643468660104,22845.5130658,32
1643468660104,22845.5130687,11
1643468660104,22845.5130715,2
1643468660104,22845.5130743,49
1643468660104,22845.5130771,98
1643468660124,22845.5130798,70
1643468660124,22845.5130826,30
1643468660124,22845.5130855,51
1643468660124,22845.5130883,63
1643468660124,22845.5130911,35
1643468660124,22845.5130939,37
1643468660124,22845.5130967,56
1643468660124,22845.5130995,73
1643468660124,22845.5131023,108
1643468660124,22845.5131052,101
1643468660161,22845.5131081,54
1643468660161,22845.5131109,49
1643468660161,22845.5131137,54
1643468660161,22845.5131166,18
1643468660161,22845.5131194,4
1643468660161,22845.5131254,47
1643468660161,22845.513131,68
1643468660161,22845.513134,54
1643468660161,22845.513137,40
1643468660161,22845.51314,70
1643468660191,22845.513143,259
1643468660191,22845.5131462,600
1643468660191,22845.5131497,878
1643468660191,22845.5131525,899
1643468660191,22845.5131555,499
1643468660191,22845.5131587,-174
1643468660191,22845.5131629,-421
1643468660191,22845.513167,-153
1643468660191,22845.51317,-21
1643468660191,22845.5131729,-91
1643468660224,22845.5131778,-68
1643468660224,22845.5131807,-28
1643468660224,22845.5131835,-40
1643468660224,22845.5131867,-28
1643468660224,22845.5131898,-4
1643468660224,22845.5131927,-11
1643468660224,22845.5131957,-35
1643468660224,22845.5131987,-32
1643468660224,22845.5132016,2
1643468660224,22845.5132053,30
1643468660261,22845.5132086,25
1643468660261,22846.0194158,32
1643468660261,22846.0194326,49
1643468660261,22846.0194367,37
1643468660261,22846.0194398,32
1643468660261,22846.0208564,51
1643468660261,22846.0208917,56
1643468660261,22846.020899,61
1643468660261,22846.0209044,77
1643468660261,22846.0209078,87
1643468660291,22846.020913,94
1643468660291,22846.0209162,108
1643468660291,22846.0209212,89
1643468660291,22846.0209245,40
1643468660291,22846.0209299,23
1643468660291,22846.020933,16
1643468660291,22846.0209381,4
1643468660291,22846.0209412,42
1643468660291,22846.0209463,63
1643468660291,22846.0209496,0
1643468660324,22846.0209547,-28
1643468660324,22846.0209579,-7
1643468660324,22846.020963,-23
1643468660324,22846.0209662,-40
1643468661023,22846.0209712,-35
1643468661023,22846.0209742,-56
1643468661023,22846.0209772,-94
1643468661023,22846.0209801,-73
1643468661023,22846.020983,-2
1643468661023,22846.020986,-7
1643468661023,22846.0209889,-44
1643468661023,22846.0209918,-16
1643468661023,22846.0209947,-4
1643468661023,22846.0209976,-40
1643468661057,22846.0210004,-40
1643468661057,22846.0210035,-18
1643468661057,22846.0210063,-25
1643468661057,22846.0210092,-28
1643468661057,22846.021012,-14
1643468661057,22846.0210149,-4
1643468661057,22846.0210178,-11
1643468661057,22846.0210207,-23
1643468661057,22846.0210235,-30
1643468661057,22846.0210264,-32
1643468661092,22846.0210293,-32
1643468661092,22846.0210322,-49
1643468661092,22846.0210352,-49
1643468661092,22846.0210381,-11
1643468661092,22846.0210409,-16
1643468661092,22846.0210438,-40
1643468661092,22846.0210467,-16
1643468661092,22846.0210497,2
1643468661092,22846.0210526,-25
1643468661092,22846.0210554,-40
1643468661126,22846.0210583,-2
1643468661126,22846.0210612,28
1643468661126,22846.0210644,2
1643468661126,22846.0210675,-49
1643468661126,22846.0210731,-44
1643468661126,22846.0210761,-14
1643468661126,22846.021079,-21
1643468661126,22846.0210819,-42
1643468661126,22846.0210848,-61
1643468661126,22846.0210893,-63
1643468661158,22846.0210924,-4
1643468661158,22846.0210956,127
1643468661158,22846.0210987,365
1643468661158,22846.0211016,645
1643468661158,22846.0211047,713
1643468661158,22846.0211079,412
1643468661158,22846.0211132,-160
1643468661158,22846.0211165,-504
1643468661158,22846.0211527,-303
1643468661158,22846.0211612,-44
1643468661190,22846.9145091,-75
1643468661190,22846.9145226,-103
1643468661190,22846.9145441,-21
1643468661190,22846.9145474,-16
1643468661190,22846.9145509,-84
1643468661190,22846.914554,-77
1643468661190,22846.9145571,-44
1643468661190,22846.9145625,-70
1643468661190,22846.9145657,-37
1643468661190,22846.9145708,21
1643468661223,22846.9145743,-21
1643468661223,22846.9145773,-63
1643468661223,22846.9145804,-44
1643468661223,22846.9145853,-32
1643468661223,22846.9145885,-28
1643468661223,22846.9145933,-7
1643468661223,22846.9145965,9
1643468661223,22846.9146013,14
1643468661223,22846.9146044,35
1643468661223,22846.9146094,56
1643468661256,22846.9146125,42
1643468661256,22846.9146173,-7
1643468661256,22846.9146205,-49
1643468661256,22846.9146255,-37
1643468661256,22846.9146286,16
1643468661256,22846.9146315,94
1643468661256,22846.9146345,164
1643468661256,22846.9146374,127
1643468661256,22846.9146403,9
1643468661256,22846.9146432,14
1643468661280,22846.914646,164
1643468661280,22846.9146489,124
1643468661280,22846.9146518,-108
1643468661280,22846.9146546,-44
1643468661280,22846.9146575,181
1643468661280,22846.9146604,7
1643468661280,22846.9146636,-268
1643468661280,22846.9146666,-169
1643468661280,22846.9146695,0
1643468661280,22846.9146725,-101
1643468661302,22846.9146754,-223
1643468661302,22846.9146782,-101
1643468661302,22846.9146811,115
1643468661302,22846.9146839,167
1643468661302,22846.9146868,9
1643468661302,22846.9146897,-73
1643468661302,22846.9146926,61
1643468661302,22846.9146955,96
1643468661302,22846.9146984,-11
1643468661302,22846.9147013,-11
1643468661323,22846.9147041,25
1643468661323,22846.914707,-18
1643468661323,22846.9147103,-16
1643468661323,22846.9147132,51
1643468661323,22846.9147161,75
1643468661323,22846.9147189,42
1643468661323,22846.9147218,23
1643468661323,22846.9147255,30
1643468661323,22846.9147284,40
1643468661323,22846.9147312,30
1643468661346,22846.9147341,-32
1643468661346,22846.914737,-61
1643468661346,22846.91474,-30
1643468661346,22846.9147428,23
1643468661346,22846.914746,122
1643468661346,22846.9147489,150
1643468661346,22846.9147519,58
1643468661346,22846.9147548,25
1643468661346,22846.9147578,63
1643468661346,22846.9147608,42
1643468661369,22846.9147637,-4
1643468661369,22846.9147666,7
1643468661369,22846.9147695,37
1643468661369,22847.1625833,35
1643468661369,22847.1625956,49
1643468661369,22847.162601,65
1643468661369,22847.1626061,80
1643468661369,22847.1626106,179
1643468661369,22847.1626156,388
1643468661369,22847.16262,603
1643468661392,22847.1626249,695
1643468661392,22847.1626278,518
1643468661392,22847.162631,-14
1643468661392,22847.162636,-412
1643468661392,22847.1626397,-228
1643468661392,22847.162644,30
1643468661392,22847.1626474,-47
1643468661392,22847.1626521,-127
1643468661392,22847.1626555,-32
1643468661392,22847.1626587,54
1643468661413,22847.1626626,51
1643468661413,22847.1626656,56
1643468661413,22847.1626695,84
1643468661413,22847.1626727,61
1643468661413,22847.1626775,2
1643468661413,22847.1626824,-49
1643468661413,22847.1626866,-49
1643468661413,22847.1626897,51
1643468661902,22847.1626946,115
1643468661902,22847.1626983,70
1643468661902,22847.1627012,47
1643468661902,22847.1627041,68
1643468661902,22847.162707,75
1643468661902,22847.1627098,65
1643468661902,22847.1627127,77
1643468661902,22847.1627156,89
1643468661902,22847.1627185,73
1643468661902,22847.1627213,11
1643468661934,22847.1627242,-35
1643468661934,22847.162727,87
1643468661934,22847.1627298,233
1643468661934,22847.1627327,167
1643468661934,22847.1627355,73
1643468661934,22847.1627383,108
1643468661934,22847.1627412,115
1643468661934,22847.162744,98
1643468661934,22847.162747,188
1643468661934,22847.16275,150
1643468661969,22847.1627552,-65
1643468661969,22847.1627581,-70
1643468661969,22847.1627612,35
1643468661969,22847.1627653,-14
1643468661969,22847.1627684,-49
1643468661969,22847.1627724,-4
1643468661969,22847.1627756,25
1643468661969,22847.1627804,47
1643468661969,22847.162785,51
1643468661969,22847.1627906,30
1643468662001,22847.1627936,21
1643468662001,22847.1627976,11
1643468662001,22847.1628029,-4
1643468662001,22847.162806,-23
1643468662001,22847.1628109,2
1643468662001,22847.1628157,75
1643468662001,22847.1628204,40
1643468662001,22847.1628249,-61
1643468662001,22847.1628299,-28
1643468662001,22847.1628329,63
1643468662035,22847.162836,54
1643468662035,22847.1628402,-11
1643468662035,22847.1628433,-4
1643468662035,22847.1628482,54
1643468662035,22847.1628525,30
1643468662035,22847.1628556,-35
1643468662035,22847.1628587,-7
1643468662035,22847.1628622,35
1643468662035,22847.8143557,16
1643468662035,22847.8143688,-30
1643468662067,22847.8143737,-30
1643468662067,22847.814379,87
1643468662067,22847.8143821,122
1643468662067,22847.8143851,40
1643468662067,22847.8143892,11
1643468662067,22847.8143922,-16
1643468662067,22847.814397,-65
1643468662067,22847.8143999,-68
1643468662067,22847.8144029,-28
1643468662067,22847.8144059,47
1643468662103,22847.8144089,204
1643468662103,22847.8144119,499
1643468662103,22847.8144158,772
1643468662103,22847.8144187,720
1643468662103,22847.8144216,256
1643468662103,22847.8144246,-306
1643468662103,22847.8144276,-449
1643468662103,22847.8144305,-193
1643468662103,22847.8144346,-68
1643468662103,22847.8144375,-171
1643468662136,22847.8144404,-183
1643468662136,22847.8144433,-44
1643468662136,22847.8144463,7
1643468662136,22847.8144492,-49
1643468662301,22847.8144521,-61
1643468662301,22847.8144549,-14
1643468662301,22847.8144577,14
1643468662301,22847.8144606,-11
1643468662301,22847.8144634,-25
1643468662301,22847.8144662,7
1643468662301,22847.8144689,18
1643468662301,22847.8144717,4
1643468662301,22847.8144744,14
1643468662301,22847.8144772,61
1643468662335,22847.81448,63
1643468662335,22847.8144831,-9
1643468662335,22847.8144859,-47
1643468662335,22847.8144887,23
1643468662335,22847.8144914,110
1643468662335,22847.8144943,108
1643468662335,22847.8144972,56
1643468662335,22847.8145002,70
1643468662335,22847.8145031,169
1643468662335,22847.8145061,136
1643468662368,22847.8145091,-14
1643468662368,22847.814512,-16
1643468662368,22847.8145149,73
1643468662368,22847.8145178,47
1643468662368,22847.8145208,-11
1643468662368,22847.8145238,63
1643468662368,22847.8145267,103
1643468662368,22847.8145308,11
1643468662368,22847.8145338,-49
1643468662368,22847.8145368,-28
1643468662401,22847.8145407,9
1643468662401,22847.8145436,-23
1643468662401,22847.8145466,-54
1643468662401,22847.8145496,-11
1643468662401,22847.8145526,18
1643468662401,22847.8145555,35
1643468662401,22847.8145585,44
1643468662401,22847.8145614,14
1643468662401,22847.8145761,-21
1643468662401,22847.8145811,-54
1643468662435,22847.8145852,-42
1643468662435,22847.8145904,32
1643468662435,22847.8145934,32
1643468662435,22847.8145963,-21
1643468662435,22847.8145993,18
1643468662435,22847.8146023,56
1643468662435,22847.8146052,-4
1643468662435,22848.2179348,-61
1643468662435,22848.2179482,-37
1643468662435,22848.2179517,-16
1643468662467,22848.217957,-2
1643468662467,22848.2179603,54
1643468662467,22848.2179652,54
1643468662467,22848.2179683,9
1643468662467,22848.2179731,32
1643468662467,22848.2179762,68
1643468662467,22848.217981,14
1643468662467,22848.2179842,-65
1643468662467,22848.217989,-75
1643468662467,22848.2179922,-32
1643468662502,22848.217997,-23
1643468662502,22848.2180002,-42
1643468662502,22848.2180051,-42
1643468662502,22848.2180082,-61
1643468662502,22848.2180132,-49
1643468662502,22848.2180164,117
1643468662502,22848.2180215,419
1643468662502,22848.2180247,662
1643468662502,22848.2180306,636
1643468662502,22848.2180552,259
1643468662533,22848.2180675,-273
1643468662533,22848.2180739,-471
1643468662533,22848.2180789,-252
1643468662533,22848.2180842,-84
1643468663002,22848.2180874,-113
1643468663002,22848.2180996,-120
1643468663002,22848.2181027,-98
1643468663002,22848.2181056,-108
1643468663002,22848.2181091,-108
1643468663002,22848.2181119,-82
1643468663002,22848.2181147,-40
1643468663002,22848.2181266,-35
1643468663002,22848.2181326,-63
1643468663002,22848.2181357,-44
1643468663034,22848.2181386,-25
1643468663034,22848.2181415,-70
1643468663034,22848.2181444,-75
1643468663034,22848.2181472,-30
1643468663034,22848.2181501,-35
1643468663034,22848.2181532,-35
1643468663034,22848.2181563,-4
1643468663034,22848.2181593,-37
1643468663034,22848.2181624,-42
1643468663034,22848.2181655,77
1643468663070,22848.2181686,148
1643468663070,22848.2181742,87
1643468663070,22848.2181774,35
1643468663070,22848.2181821,61
1643468663070,22848.2181853,94
1643468663070,22848.2181909,63
1643468663070,22848.218194,28
1643468663070,22848.218199,49
1643468663070,22848.2182021,49
1643468663070,22848.2182052,23
1643468663102,22848.2182082,14
1643468663102,22848.2182113,-7
1643468663102,22848.2182144,-16
1643468663102,22848.2182197,-7
1643468663102,22848.2182227,-4
1643468663102,22848.2182259,-21
1643468663102,22848.2182309,-75
1643468663102,22848.2182341,-63
1643468663102,22848.2182371,51
1643468663102,22848.2182425,58
1643468663135,22848.2182456,-23
1643468663135,22848.2182508,7
1643468663135,22848.2182539,80
1643468663135,22848.2182588,42
1643468663135,22848.2182619,-14
1643468663135,22848.2182669,2
1643468663135,22848.9156089,35
1643468663135,22848.9156224,16
1643468663135,22848.9156261,-16
1643468663135,22848.9156303,-14
1643468663168,22848.9156332,-11
1643468663168,22848.9156369,-28
1643468663168,22848.9156408,-11
1643468663168,22848.9156436,21
1643468663168,22848.9156466,-25
1643468663168,22848.9156496,-77
1643468663168,22848.9156525,18
1643468663168,22848.9156622,103
1643468663168,22848.9156666,28
1643468663168,22848.9156695,-28
1643468663202,22848.9156725,-7
1643468663202,22848.9156752,-37
1643468663202,22848.9156781,-84
1643468663202,22848.9156809,-82
1643468663202,22848.9156839,-58
1643468663202,22848.9156868,-30
1643468663202,22848.9156899,-2
1643468663202,22848.9156928,-2
1643468663202,22848.9156958,-23
1643468663202,22848.9157011,0
1643468663239,22848.9157041,129
1643468663239,22848.9157071,362
1643468663239,22848.9157101,565
1643468663239,22848.9157131,539
1643468663456,22848.9157169,202
1643468663456,22848.9157223,-247
1643468663456,22848.9157252,-376
1643468663456,22848.9157281,-146
1643468663456,22848.915731,-18
1643468663456,22848.9157338,-80
1643468663456,22848.9157365,-77
1643468663456,22848.9157393,-37
1643468663456,22848.915742,-42
1643468663456,22848.9157448,-77
1643468663479,22848.9157475,-129
1643468663479,22848.9157503,-101
1643468663479,22848.9157532,16
1643468663479,22848.915756,49
1643468663479,22848.9157588,0
1643468663479,22848.9157616,2
1643468663479,22848.9157644,11
1643468663479,22848.9157672,-11
1643468663479,22848.9157699,-7
1643468663479,22848.9157728,23
1643468663501,22848.9157755,23
1643468663501,22848.9157783,30
1643468663501,22848.915781,63
1643468663501,22848.9157838,44
1643468663501,22848.9157866,-2
1643468663501,22848.9157894,30
1643468663501,22848.9157921,106
1643468663501,22848.915795,115
1643468663501,22848.9157977,77
1643468663501,22848.9158005,70
1643468663524,22848.9158033,91
1643468663524,22848.9158222,98
1643468663524,22848.9158314,77
1643468663524,22848.915873,28
1643468663524,22848.9158768,-4
1643468663524,22848.9158798,30
1643468663524,22848.9158827,84
1643468663524,22848.9158856,98
1643468663524,22848.9158885,77
1643468663524,22848.9158913,30
1643468663545,22848.9158941,-11
1643468663545,22848.915897,-2
1643468663545,22848.9158998,16
1643468663545,22848.9159027,-9
1643468663545,22848.9159055,-51
1643468663545,22849.3686906,-25
1643468663545,22849.3687035,54
1643468663545,22849.3687074,70
1643468663545,22849.3687128,21
1643468663545,22849.3687161,25
1643468663578,22849.3687211,56
1643468663578,22849.3687243,42
1643468663578,22849.3687274,4
1643468663578,22849.3687318,-44
1643468663578,22849.368735,-37
1643468663578,22849.36874,9
1643468663578,22849.368744,0
1643468663578,22849.3687489,-23
1643468663578,22849.3687521,11
1643468663578,22849.3687567,23
1643468663612,22849.3687599,-18
1643468663612,22849.3687648,-2
1643468663612,22849.3687678,54
1643468663612,22849.368771,54
1643468663612,22849.3687751,32
1643468663612,22849.3687782,40
1643468663612,22849.3687822,35
1643468663612,22849.3687853,7
1643468663612,22849.3687897,-14
1643468663612,22849.3687949,-14
1643468663644,22849.3687981,-9
1643468663644,22849.3688021,-4
1643468663644,22849.3688053,11
1643468663644,22849.3688092,2
1643468664078,22849.3688123,25
1643468664078,22849.3688155,179
1643468664078,22849.3688184,412
1643468664078,22849.3688213,652
1643468664078,22849.3688243,753
1643468664078,22849.3688273,480
1643468664078,22849.3688302,-80
1643468664078,22849.3688332,-388
1643468664078,22849.3688361,-228
1643468664078,22849.3688391,-35
1643468664112,22849.368842,-30
1643468664112,22849.3688449,-23
1643468664112,22849.3688479,23
1643468664112,22849.3688508,18
1643468664112,22849.3688538,-4
1643468664112,22849.3688566,7
1643468664112,22849.3688605,14
1643468664112,22849.3688638,-2
1643468664112,22849.368867,-7
1643468664112,22849.3688713,28
1643468664147,22849.3689156,58
1643468664147,22849.3689214,18
1643468664147,22849.3689246,-18
1643468664147,22849.3689277,42
1643468664147,22849.3689309,80
1643468664147,22849.3689341,58
1643468664147,22849.3689394,80
1643468664147,22849.3689427,77
1643468664147,22849.3689477,58
1643468664147,22849.3689509,113
1643468664179,22849.3689559,136
1643468664179,22849.3689591,113
1643468664179,22849.3689641,122
1643468664179,22849.3689673,117
1643468664179,22849.3689723,91
1643468664179,22849.3689755,77
1643468664179,22849.3689804,98
1643468664179,22849.3689835,139
1643468664179,22849.3689885,103
1643468664179,22849.3689917,54
1643468664213,22849.3689965,91
1643468664213,22849.3689996,94
1643468664213,22849.3690045,16
1643468664213,22849.3690076,-7
1643468664213,22849.9678226,25
1643468664213,22849.9678353,30
1643468664213,22849.967839,-4
1643468664213,22849.9678421,-18
1643468664213,22849.9678464,21
1643468664213,22849.9678513,30
1643468664245,22849.9678543,-4
1643468664245,22849.9678573,-37
1643468664245,22849.9678602,-51
1643468664245,22849.9678631,-25
1643468664245,22849.9678661,11
1643468664245,22849.9678691,16
1643468664245,22849.9678721,-2
1643468664245,22849.9678751,-42
1643468664245,22849.9678781,-49
1643468664245,22849.967881,4
1643468664278,22849.967884,0
1643468664278,22849.9678881,-56
1643468664278,22849.9678911,-40
1643468664278,22849.9678951,9
1643468664278,22849.9678984,-2
1643468664278,22849.9679031,-9
1643468664278,22849.967906,25
1643468664278,22849.9679091,42
1643468664278,22849.9679141,30
1643468664278,22849.9679183,25
1643468664316,22849.967923,35
1643468664316,22849.9679267,49
1643468664316,22849.9679316,23
1643468664316,22849.9679361,-25
1643468664701,22849.9679409,-21
1643468664701,22849.9679443,-2
1643468664701,22849.9679472,-30
1643468664701,22849.9679501,-40
1643468664701,22849.9679529,21
1643468664701,22849.9679557,127
1643468664701,22849.9679585,334
1643468664701,22849.9679613,654
1643468664701,22849.9679641,866
1643468664701,22849.9679669,704
1643468664725,22849.9679697,124
1643468664725,22849.9679725,-433
1643468664725,22849.9679753,-421
1643468664725,22849.9679781,-89
1643468664725,22849.9679809,11
1643468664725,22849.9679837,-58
1643468664725,22849.9679865,-73
1643468664725,22849.9679892,-61
1643468664725,22849.967992,-51
1643468664725,22849.967995,-42
1643468664745,22849.967998,-51
1643468664745,22849.9680009,-54
1643468664745,22849.9680039,7
1643468664745,22849.9680069,51
1643468664745,22849.96801,-16
1643468664745,22849.9680129,-49
1643468664745,22849.968016,7
1643468664745,22849.9680195,9
1643468664745,22849.9680224,-7
1643468664745,22849.9680254,21
1643468664767,22849.9680284,16
1643468664767,22849.9680312,25
1643468664767,22849.9680342,77
1643468664767,22849.9680382,44
1643468664767,22849.9680411,32
1643468664767,22849.9680441,115
1643468664767,22849.968047,117
1643468664767,22849.9680499,58
1643468664767,22849.9680529,51
1643468664767,22849.9680558,47
1643468664790,22849.9680588,42
1643468664790,22849.9680618,58
1643468664790,22849.9680658,49
1643468664790,22850.6135641,23
1643468664790,22850.6135838,21
1643468664790,22850.6135871,7
1643468664790,22850.6135903,-32
1643468664790,22850.6135933,-49
1643468664790,22850.6135963,-40
1643468664790,22850.6135992,-21
1643468664812,22850.6136022,-18
1643468664812,22850.6136051,-30
1643468664812,22850.6136082,-37
1643468664812,22850.6136139,-49
1643468664812,22850.6136169,-56
1643468664812,22850.6136211,-44
1643468664812,22850.6136264,-42
1643468664812,22850.6136295,-49
1643468664812,22850.613635,-44
1643468664812,22850.6136382,-30
1643468664834,22850.6136432,-32
1643468664834,22850.6136463,-40
1643468664834,22850.6136495,-37
1643468664834,22850.6136543,-56
1643468664834,22850.6136574,-56
1643468664834,22850.6136624,-32
1643468664834,22850.6136821,-37
1643468664834,22850.6136851,-21
1643468664834,22850.6136883,23
1643468664834,22850.6136933,21
1643468664857,22850.6136965,-25
1643468664857,22850.6137016,-32
1643468664857,22850.6137047,14
1643468664857,22850.6137101,9
1643468665169,22850.6137136,-68
1643468665169,22850.6137166,-84
1643468665169,22850.6137196,-32
1643468665169,22850.6137226,-25
1643468665169,22850.6137256,-28
1643468665169,22850.6137285,-2
1643468665169,22850.6137314,-40
1643468665169,22850.6137342,-70
1643468665169,22850.6137372,84
1643468665169,22850.6137403,336
1643468665202,22850.6137432,548
1643468665202,22850.613746,683
1643468665202,22850.6137489,544
1643468665202,22850.6137518,18
1643468665202,22850.613755,-440
1643468665202,22850.6137578,-353
1643468665202,22850.6137607,-65
1643468665202,22850.6137636,-49
1643468665202,22850.6137665,-115
1643468665202,22850.6137694,-70
1643468665236,22850.6137726,-44
1643468665236,22850.6137755,-68
1643468665236,22850.6137784,-54
1643468665236,22850.6137815,-25
1643468665236,22850.6137844,-35
1643468665236,22850.6137886,-58
1643468665236,22850.6137924,-47
1643468665236,22850.6137957,-16
1643468665236,22850.6138001,-16
1643468665236,22850.6138059,-28
1643468665268,22850.613809,-16
1643468665268,22850.6138143,-7
1643468665268,22850.6138175,7
1643468665268,22850.6138226,16
1643468665268,22850.6138257,11
1643468665268,22850.6138309,25
1643468665268,22850.613834,58
1643468665268,22850.6138391,77
1643468665268,22850.6138426,87
1643468665268,22850.6138457,91
1643468665305,22850.6138495,58
1643468665305,22850.6138544,4
1643468665305,22851.0678322,11
1643468665305,22851.067845,58
1643468665305,22851.0678492,65
1643468665305,22851.0678545,54
1643468665305,22851.0678586,56
1643468665305,22851.0678618,58
1643468665305,22851.0678668,32
1643468665305,22851.0678698,-44
1643468665340,22851.0678729,-94
1643468665340,22851.0678778,-32
1643468665340,22851.0678807,37
1643468665340,22851.0678839,16
1643468665340,22851.0678889,0
1643468665340,22851.0678918,4
1643468665340,22851.0678948,-35
1643468665340,22851.0678979,-73
1643468665340,22851.0679031,-94
1643468665340,22851.067906,-89
1643468665376,22851.0679091,4
1643468665376,22851.0679133,87
1643468665376,22851.0679163,42
1643468665376,22851.0679194,-37
1643468665376,22851.0679233,-25
1643468665376,22851.0679263,9
1643468665376,22851.0679304,-37
1643468665376,22851.0679334,-84
1643468665376,22851.0679375,-40
1643468665376,22851.0679405,16
1643468665402,22851.0679446,65
1643468665402,22851.0679477,117
1643468665402,22851.0679526,68
1643468665402,22851.0679555,-47
1643468665868,22851.0679585,-51
1643468665868,22851.0679615,0
1643468665868,22851.0679643,-23
1643468665868,22851.0679671,-82
1643468665868,22851.0679699,-91
1643468665868,22851.0679727,-28
1643468665868,22851.0679755,37
1643468665868,22851.0679783,0
1643468665868,22851.0679811,-98
1643468665868,22851.0679839,-136
1643468665904,22851.0679866,-75
1643468665904,22851.0679895,73
1643468665904,22851.0679923,263
1643468665904,22851.0679952,457
1643468665904,22851.067998,577
1643468665904,22851.0680008,452
1643468665904,22851.0680037,-4
1643468665904,22851.0680067,-440
1643468665904,22851.0680097,-412
1643468665904,22851.0680127,-110
1643468665935,22851.0680157,-4
1643468665935,22851.0680199,-120
1643468665935,22851.0680229,-164
1643468665935,22851.0680259,-70
1643468665935,22851.0680298,-25
1643468665935,22851.0680328,-63
1643468665935,22851.0680357,-75
1643468665935,22851.0680387,-51
1643468665935,22851.0680437,-35
1643468665935,22851.0680466,-40
1643468665969,22851.0680495,-37
1643468665969,22851.0680523,-21
1643468665969,22851.0680551,37
1643468665969,22851.068058,94
1643468665969,22851.0680608,37
1643468665969,22851.0680636,-35
1643468665969,22851.0680664,7
1643468665969,22851.0680694,82
1643468665969,22851.0680733,94
1643468665969,22851.0680763,44
1643468666001,22851.0680793,25
1643468666001,22851.7621726,82
1643468666001,22851.762185,117
1643468666001,22851.7621898,87
1643468666001,22851.762195,44
1643468666001,22851.762198,61
1643468666001,22851.7622029,94
1643468666001,22851.7622071,101
1643468666001,22851.7622102,124
1643468666001,22851.7622144,108
1643468666034,22851.7622174,30
1643468666034,22851.7622204,2
1643468666034,22851.7622234,16
1643468666034,22851.7622263,32
1643468666034,22851.7622294,23
1643468666034,22851.7622324,-54
1643468666034,22851.7622374,-75
1643468666034,22851.7622421,25
1643468666034,22851.762247,91
1643468666034,22851.7622498,30
1643468666069,22851.7622528,-58
1643468666069,22851.7622557,-56
1643468666069,22851.7622597,-4
1643468666069,22851.7622627,-2
1643468666069,22851.7622657,-54
1643468666069,22851.7622732,-80
1643468666069,22851.7622761,-9
1643468666069,22851.7622791,73
1643468666069,22851.7622822,63
1643468666069,22851.7622935,49
1643468666102,22851.7622965,73
1643468666102,22851.7622995,70
1643468666102,22851.7623037,54
1643468666102,22851.7623068,84
1643468666368,22851.7623118,141
1643468666368,22851.7623148,113
1643468666368,22851.7623176,42
1643468666368,22851.7623204,56
1643468666368,22851.7623233,101
1643468666368,22851.762326,87
1643468666368,22851.7623291,56
1643468666368,22851.7623319,44
1643468666368,22851.7623347,73
1643468666368,22851.7623374,103
1643468666408,22851.7623402,42
1643468666408,22851.762343,51
1643468666408,22851.7623459,346
1643468666408,22851.7623487,718
1643468666408,22851.7623515,857
1643468666408,22851.7623542,626
1643468666408,22851.762357,35
1643468666408,22851.7623609,-431
1643468666408,22851.7623639,-329
1643468666408,22851.7623669,-65
1643468666436,22851.7623698,-42
1643468666436,22851.7623728,-54
1643468666436,22851.7623757,-37
1643468666436,22851.7623787,-47
1643468666436,22851.7623841,-25
1643468666436,22851.7623872,21
1643468666436,22851.762392,42
1643468666436,22851.7623959,0
1643468666436,22851.7624007,-44
1643468666436,22851.7624038,-18
1643468666469,22851.7624067,14
1643468666469,22851.7624099,23
1643468666469,22851.7624133,37
1643468666469,22851.7624161,56
1643468666469,22851.7624189,84
1643468666469,22851.7624217,80
1643468666469,22851.7624245,37
1643468666469,22851.7624273,68
1643468666469,22851.7624301,139
1643468666469,22851.7624329,150
1643468666507,22852.2657089,110
1643468666507,22852.2657212,75
1643468666507,22852.2657247,80
1643468666507,22852.2657298,89
1643468666507,22852.2657349,75
1643468666507,22852.2657397,94
1643468666507,22852.2657426,143
1643468666507,22852.2657456,134
1643468666507,22852.2657486,103
1643468666507,22852.2657515,115
1643468666527,22852.2657544,96
1643468666527,22852.2657573,47
1643468666527,22852.2657603,21
1643468666527,22852.2657633,16
1643468666527,22852.2657683,23
1643468666527,22852.2657729,-18
1643468666527,22852.2657778,-61
1643468666527,22852.2657807,-25
1643468666527,22852.2657837,14
1643468666527,22852.2657867,-11
1643468666549,22852.2657907,-54
1643468666549,22852.2657936,-58
1643468666549,22852.2657976,-30
1643468666549,22852.2658005,-2
1643468666549,22852.2658035,-4
1643468666549,22852.2658065,-23
1643468666549,22852.2658094,-37
1643468666549,22852.2658124,0
1643468666549,22852.2658174,68
1643468666549,22852.2658203,51
1643468666571,22852.2658232,0
1643468666571,22852.2658262,32
1643468666571,22852.2658312,51
1643468666571,22852.2658341,-9
1643468666924,22852.265837,-40
1643468666924,22852.2658399,-32
1643468666924,22852.2658428,-32
1643468666924,22852.2658456,-21
1643468666924,22852.2658484,-7
1643468666924,22852.2658512,-28
1643468666924,22852.2658539,-56
1643468666924,22852.2658567,-35
1643468666924,22852.2658594,4
1643468666924,22852.2658623,68
1643468666957,22852.2658651,282
1643468666957,22852.265868,596
1643468666957,22852.2658716,793
1643468666957,22852.2658746,676
1643468666957,22852.2658776,146
1643468666957,22852.2658806,-386
1643468666957,22852.2658861,-369
1643468666957,22852.265889,-108
1643468666957,22852.2658921,-65
1643468666957,22852.265895,-68
1643468666990,22852.265898,-21
1643468666990,22852.2659009,-56
1643468666990,22852.2659039,-87
1643468666990,22852.2659069,-51
1643468666990,22852.2659099,-28
1643468666990,22852.2659138,-32
1643468666990,22852.2659168,-21
1643468666990,22852.2659198,-7
1643468666990,22852.2659227,-23
1643468666990,22852.2659257,-30
1643468667023,22852.2659288,14
1643468667023,22852.2659338,37
1643468667023,22852.2659384,30
1643468667023,22852.2659435,49
1643468667023,22852.2659463,56
1643468667023,22852.2659493,40
1643468667023,22852.2659536,44
1643468667023,22852.2659566,56
1643468667023,22852.2659596,61
1643468667023,22852.8179435,75
1643468667056,22852.8179574,115
1643468667056,22852.8179613,106
1643468667056,22852.8179668,56
1643468667056,22852.8179702,73
1643468667056,22852.8179751,96
1643468667056,22852.8179781,73
1643468667056,22852.8179812,49
1643468667056,22852.8179843,47
1643468667056,22852.8179884,37
1643468667056,22852.8179915,25
1643468667089,22852.8179954,16
1643468667089,22852.8179985,-9
1643468667089,22852.8180035,-9
1643468667089,22852.8180083,16
1643468667089,22852.8180134,-16
1643468667089,22852.8180164,-49
1643468667089,22852.8180216,-14
1643468667089,22852.8180248,4
1643468667089,22852.8180296,-16
1643468667089,22852.8180345,-23
1643468667126,22852.8180394,2
1643468667126,22852.8180426,23
1643468667126,22852.8180467,14
1643468667126,22852.8180498,-4
1643468667126,22852.8180529,-28
1643468667126,22852.818058,-16
1643468667126,22852.8180627,-9
1643468667126,22852.8180676,-49
1643468667126,22852.8180724,-49
1643468667126,22852.8180776,-7
1643468667157,22852.8180826,-2
1643468667157,22852.8180876,-25
1643468667157,22852.8180905,-35
1643468667157,22852.8180936,-35
1643468667425,22852.8180986,-65
1643468667425,22852.8181026,-82
1643468667425,22852.8181056,-56
1643468667425,22852.8181085,-37
1643468667425,22852.8181114,-25
1643468667425,22852.8181143,-35
1643468667425,22852.8181172,-56
1643468667425,22852.81812,-28
1643468667425,22852.818123,110
1643468667425,22852.818126,374
1643468667456,22852.8181289,614
1643468667456,22852.8181317,645
1643468667456,22852.8181346,346
1643468667456,22852.8181375,-193
1643468667456,22852.8181405,-452
1643468667456,22852.8181433,-252
1643468667456,22852.8181462,-87
1643468667456,22852.8181499,-115
1643468667456,22852.8181552,-94
1643468667456,22852.8181581,-40
1643468667491,22852.8181613,-77
1643468667491,22852.8181643,-122
1643468667491,22852.8181694,-56
1643468667491,22852.8181724,16
1643468667491,22852.8181755,-21
1643468667491,22852.8181795,-49
1643468667491,22852.8181826,-14
1643468667491,22852.8181867,2
1643468667491,22852.8181899,23
1643468667491,22852.8181948,32
1643468667523,22852.8181978,-7
1643468667523,22852.8182009,2
1643468667523,22852.8182062,37
1643468667523,22852.8182093,44
1643468667523,22852.8182142,54
1643468667523,22852.8182172,58
1643468667523,22852.8182203,47
1643468667523,22852.8182254,54
1643468667523,22853.3179845,73
1643468667523,22853.3179975,80
1643468667557,22853.3180023,65
1643468667557,22853.3180076,77
1643468667557,22853.3180125,120
1643468667557,22853.3180174,106
1643468667557,22853.3180222,44
1643468667557,22853.3180272,49
1643468667557,22853.318031,82
1643468667557,22853.3180343,51
1643468667557,22853.3180374,25
1643468667557,22853.3180403,42
1643468667594,22853.3180432,56
1643468667594,22853.3180461,47
1643468667594,22853.3180494,-4
1643468667594,22853.3180525,-18
1643468667594,22853.3180553,14
1643468667594,22853.3180584,-18
1643468667594,22853.3180615,-58
1643468667594,22853.3180647,-28
1643468667594,22853.3180677,-28
1643468667594,22853.3180707,-65
1643468667623,22853.3180738,-54
1643468667623,22853.318078,-37
1643468667623,22853.3180811,-49
1643468667623,22853.3180842,-44
1643468667623,22853.3180873,-7
1643468667623,22853.3180922,11
1643468667623,22853.3180952,11
1643468667623,22853.3180983,37
1643468667623,22853.3181025,47
1643468667623,22853.3181055,-2
1643468667656,22853.3181098,-63
1643468667656,22853.3181129,-63
1643468667656,22853.318117,-2
1643468667656,22853.3181201,-16
1643468668204,22853.3181244,-80
1643468668204,22853.3181273,-51
1643468668204,22853.3181303,-21
1643468668204,22853.3181334,-54
1643468668204,22853.3181363,-47
1643468668204,22853.3181392,-25
1643468668204,22853.318142,-18
1643468668204,22853.3181449,110
1643468668204,22853.3181479,341
1643468668204,22853.3181509,497
1643468668237,22853.3181537,523
1643468668237,22853.3181566,296
1643468668237,22853.3181595,-171
1643468668237,22853.3181625,-424
1643468668237,22853.3181654,-249
1643468668237,22853.3181683,-63
1643468668237,22853.3181712,-61
1643468668237,22853.3181744,-61
1643468668237,22853.3181773,-40
1643468668237,22853.3181802,-40
1643468668269,22853.3181831,-54
1643468668269,22853.3181861,-63
1643468668269,22853.318189,-44
1643468668269,22853.3181919,-32
1643468668269,22853.3181948,-30
1643468668269,22853.3181976,-18
1643468668269,22853.3182009,-4
1643468668269,22853.3182048,23
1643468668269,22853.31821,30
1643468668269,22853.3182132,11
1643468668304,22853.3182181,21
1643468668304,22853.3182214,37
1643468668304,22853.3182245,16
1643468668304,22853.3182286,18
1643468668304,22853.3182317,96
1643468668304,22853.3182366,155
1643468668304,22853.3182396,131
1643468668304,22854.1129843,108
1643468668304,22854.1129962,108
1643468668304,22854.1129998,89
1643468668338,22854.1130029,82
1643468668338,22854.1130059,98
1643468668338,22854.1130088,108
1643468668338,22854.1130117,113
1643468668338,22854.1130147,103
1643468668338,22854.1130176,87
1643468668338,22854.1130204,82
1643468668338,22854.1130233,75
1643468668338,22854.1130262,18
1643468668338,22854.1130291,-54
1643468668370,22854.113032,-40
1643468668370,22854.1130349,37
1643468668370,22854.1130378,32
1643468668370,22854.1130406,-14
1643468668370,22854.1130435,-40
1643468668370,22854.1130468,-42
1643468668370,22854.11305,23
1643468668370,22854.1130603,73
1643468668370,22854.1130696,25
1643468668370,22854.1130731,28
1643468668407,22854.1130761,82
1643468668407,22854.1130789,68
1643468668407,22854.1130817,61
1643468668407,22854.11309,82
1643468668407,22854.1130933,63
1643468668407,22854.1131015,47
1643468668407,22854.1131093,42
1643468668407,22854.1131136,18
1643468668407,22854.1131216,40
1643468668407,22854.1131252,82
1643468668438,22854.1131281,80
1643468668438,22854.1131315,63
1643468668438,22854.1131345,51
1643468668438,22854.1131425,30
1643468668604,22854.1131483,23
1643468668604,22854.1131514,28
1643468668604,22854.1131543,21
1643468668604,22854.1131572,4
1643468668604,22854.1131601,4
1643468668604,22854.1131629,11
1643468668604,22854.1131657,14
1643468668604,22854.1131686,40
1643468668604,22854.1131721,186
1643468668604,22854.1131751,480
1643468668637,22854.1131779,711
1643468668637,22854.1131809,709
1643468668637,22854.1131845,412
1643468668637,22854.1131875,-134
1643468668637,22854.1131903,-395
1643468668637,22854.1131932,-148
1643468668637,22854.1131961,35
1643468668637,22854.113199,-40
1643468668637,22854.113202,-73
1643468668637,22854.1132049,-9
1643468668669,22854.1132083,25
1643468668669,22854.1132113,9
1643468668669,22854.1132142,-2
1643468668669,22854.1132171,-7
1643468668669,22854.11322,9
1643468668669,22854.1132229,42
1643468668669,22854.1132258,61
1643468668669,22854.1132287,44
1643468668669,22854.1132315,16
1643468668669,22854.1132344,42
1643468668703,22854.1132373,75
1643468668703,22854.1132403,56
1643468668703,22854.1132432,61
1643468668703,22854.1132461,115
1643468668703,22854.1132496,129
1643468668703,22854.1132525,108
1643468668703,22854.5141635,101
1643468668703,22854.514175,94
1643468668703,22854.5141786,89
1643468668703,22854.514182,131
1643468668734,22854.5141851,181
1643468668734,22854.514188,160
1643468668734,22854.5141909,115
1643468668734,22854.5141938,101
1643468668734,22854.5141967,103
1643468668734,22854.5141996,113
1643468668734,22854.5142024,98
1643468668734,22854.5142053,58
1643468668734,22854.5142082,47
1643468668734,22854.5142111,73
1643468668770,22854.514214,56
1643468668770,22854.514217,-2
1643468668770,22854.5142199,-2
1643468668770,22854.5142228,35
1643468668770,22854.5142257,35
1643468668770,22854.5142286,32
1643468668770,22854.5142314,56
1643468668770,22854.5142344,56
1643468668770,22854.5142373,25
1643468668770,22854.5142401,40
1643468668803,22854.5142436,73
1643468668803,22854.5142464,65
1643468668803,22854.5142494,49
1643468668803,22854.5142522,28
1643468668803,22854.5142551,11
1643468668803,22854.514258,21
1643468668803,22854.5142609,18
1643468668803,22854.5142637,4
1643468668803,22854.5142665,16
1643468668803,22854.5142694,0
1643468668835,22854.5142722,-56
1643468668835,22854.5142751,-37
1643468668835,22854.514278,49
1643468668835,22854.5142809,61
1643468669068,22854.5142837,18
1643468669068,22854.5142866,0
1643468669068,22854.5142895,-32
1643468669068,22854.5142924,-82
1643468669068,22854.5142952,-77
1643468669068,22854.5142981,-25
1643468669068,22854.514301,-11
1643468669068,22854.514304,-35
1643468669068,22854.5143069,-35
1643468669068,22854.5143098,-40
1643468669101,22854.5143127,-28
1643468669101,22854.5143156,157
1643468669101,22854.5143185,494
1643468669101,22854.5143215,732
1643468669101,22854.5143245,742
1643468669101,22854.5143273,384
1643468669101,22854.5143303,-268
1643468669101,22854.5143331,-541
1643468669101,22854.5143361,-240
1643468669101,22854.5143389,-58
1643468669134,22854.514342,-143
1643468669134,22854.5143448,-115
1643468669134,22854.5143478,-61
1643468669134,22854.5143507,-115
1643468669134,22854.5143536,-103
1643468669134,22854.5143565,-47
1643468669134,22854.5143594,-68
1643468669134,22854.5143624,-56
1643468669134,22854.5143654,11
1643468669134,22854.5143682,-4
1643468669168,22854.5143711,-61
1643468669168,22854.5143742,-61
1643468669168,22854.5143772,-37
1643468669168,22854.5143803,-32
1643468669168,22854.5143832,-37
1643468669168,22854.9683899,-42
1643468669168,22854.9684033,-16
1643468669168,22854.9684087,47
1643468669168,22854.968414,58
1643468669168,22854.9684176,68
1643468669188,22854.9684223,146
1643468669188,22854.9684271,106
1643468669188,22854.968432,-47
1643468669188,22854.968435,-51
1643468669188,22854.968438,21
1643468669188,22854.9684409,4
1643468669188,22854.9684439,0
1643468669188,22854.968448,51
1643468669188,22854.968451,65
1643468669188,22854.9684539,37
1643468669212,22854.9684568,18
1643468669212,22854.9684598,11
1643468669212,22854.9684648,-21
1643468669212,22854.9684682,-54
1643468669212,22854.9684729,-40
1643468669212,22854.9684759,-35
1643468669212,22854.9684789,-51
1643468669212,22854.9684818,-56
1643468669212,22854.9684848,-68
1643468669212,22854.9684876,-61
1643468669235,22854.9684905,-18
1643468669235,22854.9684935,11
1643468669235,22854.9684964,-4
1643468669235,22854.9684994,-54
1643468669235,22854.9685023,-82
1643468669235,22854.9685052,-4
1643468669235,22854.9685082,106
1643468669235,22854.9685112,49
1643468669235,22854.9685153,-56
1643468669235,22854.9685183,-25
1643468669258,22854.9685224,23
1643468669258,22854.9685254,-4
1643468669258,22854.9685284,-61
1643468669258,22854.9685313,-61
1643468669729,22854.9685342,0
1643468669729,22854.9685371,56
1643468669729,22854.9685399,84
1643468669729,22854.9685427,98
1643468669729,22854.9685454,84
1643468669729,22854.9685483,23
1643468669729,22854.9685511,-63
1643468669729,22854.9685539,-80
1643468669729,22854.9685566,-7
1643468669729,22854.9685593,-4
1643468669762,22854.9685621,-56
1643468669762,22854.9685649,-25
1643468669762,22854.9685676,-7
1643468669762,22854.9685704,-32
1643468669762,22854.9685732,16
1643468669762,22854.9685759,157
1643468669762,22854.9685787,379
1643468669762,22854.9685817,600
1643468669762,22854.9685847,631
1643468669762,22854.9685876,346
1643468669790,22854.9685906,-174
1643468669790,22854.9685937,-442
1643468669790,22854.9685987,-233
1643468669790,22854.9686038,-68
1643468669790,22854.9686086,-155
1643468669790,22854.9686116,-155
1643468669790,22854.9686165,-70
1643468669790,22854.9686207,-82
1643468669790,22854.9686247,-89
1643468669790,22854.9686278,-73
1643468669823,22854.9686325,-124
1643468669823,22854.9686356,-94
1643468669823,22854.9686387,11
1643468669823,22854.9686427,-18
1643468669823,22855.6179373,-80
1643468669823,22855.6179504,-21
1643468669823,22855.6179561,16
1643468669823,22855.617961,-18
1643468669823,22855.6179658,11
1643468669823,22855.6179707,47
1643468669857,22855.6179753,-28
1643468669857,22855.6179801,-68
1643468669857,22855.617983,7
1643468669857,22855.617986,30
1643468669857,22855.617991,-11
1643468669857,22855.6179938,-11
1643468669857,22855.6179968,2
1643468669857,22855.6179998,-18
1643468669857,22855.6180041,-4
1643468669857,22855.6180071,61
1643468669889,22855.6180113,75
1643468669889,22855.6180142,40
1643468669889,22855.6180173,40
1643468669889,22855.6180203,18
1643468669889,22855.6180234,-30
1643468669889,22855.6180273,0
1643468669889,22855.6180303,40
1643468669889,22855.6180342,9
1643468669889,22855.6180372,-4
1643468669889,22855.6180401,-4
1643468669927,22855.6180431,-35
1643468669927,22855.6180461,-40
1643468669927,22855.618049,-11
1643468669927,22855.618052,2
1643468669927,22855.618055,-16
1643468669927,22855.6180579,-37
1643468669927,22855.6180608,-18
1643468669927,22855.6180638,0
1643468669927,22855.6180687,-21
1643468669927,22855.6180718,-30
1643468669958,22855.6180748,-9
1643468669958,22855.6180779,-4
1643468669958,22855.6180822,0
1643468669958,22855.6180852,2
1643468670259,22855.618089,-18
1643468670259,22855.6180919,16
1643468670259,22855.6180948,73
1643468670259,22855.6180976,-25
1643468670259,22855.6181004,-131
1643468670259,22855.6181032,-37
1643468670259,22855.618106,25
1643468670259,22855.6181088,-25
1643468670259,22855.6181116,-4
1643468670259,22855.6181144,32
1643468670292,22855.6181171,16
1643468670292,22855.6181199,-30
1643468670292,22855.6181258,-82
1643468670292,22855.6181292,-44
1643468670292,22855.6181335,63
1643468670292,22855.6181364,23
1643468670292,22855.6181393,-157
1643468670292,22855.6181434,-157
1643468670292,22855.6181474,30
1643468670292,22855.6181503,237
1643468670324,22855.6181534,471
1643468670324,22855.6181563,607
1643468670324,22855.6181593,417
1643468670324,22855.6181625,-94
1643468670324,22855.6181682,-447
1643468670324,22855.618172,-303
1643468670324,22855.6181755,-51
1643468670324,22855.6181804,-37
1643468670324,22855.6181835,-89
1643468670324,22855.6181873,-80
1643468670357,22855.6181904,-82
1643468670357,22855.6181945,-101
1643468670357,22855.6181975,-68
1643468670357,22856.166104,-9
1643468670357,22856.1661175,7
1643468670357,22856.1661225,-23
1643468670357,22856.166469,-25
1643468670357,22856.1664825,40
1643468670357,22856.1664881,108
1643468670357,22856.1664923,37
1643468670390,22856.1664973,-96
1643468670390,22856.1665004,-49
1643468670390,22856.1665035,56
1643468670390,22856.1665086,44
1643468670390,22856.1665117,32
1643468670390,22856.1665166,61
1643468670390,22856.1665197,61
1643468670390,22856.1665246,51
1643468670390,22856.1665277,63
1643468670390,22856.1665325,68
1643468670426,22856.1665355,42
1643468670426,22856.1665405,32
1643468670426,22856.1665435,68
1643468670426,22856.1665485,80
1643468670426,22856.1665516,49
1643468670426,22856.1665564,47
1643468670426,22856.1665596,75
1643468670426,22856.1665644,75
1643468670426,22856.1665676,51
1643468670426,22856.1665727,16
1643468670457,22856.1665757,-18
1643468670457,22856.1665793,-18
1643468670457,22856.1665823,11
1643468670457,22856.1665875,28
1643468670457,22856.1665906,23
1643468670457,22856.1665955,35
1643468670457,22856.1665986,42
1643468670457,22856.1666038,16
1643468670457,22856.1666069,0
1643468670457,22856.166612,32
1643468670502,22856.1666161,80
1643468670502,22856.1666212,54
1643468670502,22856.1666244,-9
1643468670502,22856.1666292,9
1643468670760,22856.1666323,54
1643468670760,22856.1666353,58
1643468670760,22856.1666382,49
1643468670760,22856.1666414,14
1643468670760,22856.1666443,4
1643468670760,22856.1666471,49
1643468670760,22856.1666499,54
1643468670760,22856.1666527,11
1643468670760,22856.1666555,18
1643468670760,22856.1666584,35
1643468670785,22856.1666612,18
1643468670785,22856.1666642,44
1643468670785,22856.1666671,68
1643468670785,22856.1666699,18
1643468670785,22856.1666727,-14
1643468670785,22856.1666756,37
1643468670785,22856.1666784,63
1643468670785,22856.1666812,23
1643468670785,22856.1666841,18
1643468670785,22856.166687,35
1643468670816,22856.1666899,9
1643468670816,22856.1666928,7
1643468670816,22856.1667252,35
1643468670816,22856.1667365,84
1643468670816,22856.1667404,282
1643468670816,22856.1667435,593
1643468670816,22856.1667464,775
1643468670816,22856.1667493,619
1643468670816,22856.1667522,73
1643468670816,22856.1667712,-428
1643468670844,22856.166775,-355
1643468670844,22856.1667779,-65
1643468670844,22856.6684323,-54
1643468670844,22856.6684457,-117
1643468670844,22856.6684494,-28
1643468670844,22856.6684548,42
1643468670844,22856.668458,0
1643468670844,22856.668463,-16
1643468670844,22856.6684669,16
1643468670844,22856.6684718,7
1643468670872,22856.6684758,-21
1643468670872,22856.6684789,0
1643468670872,22856.6684839,44
1643468670872,22856.6684886,32
1643468670872,22856.6684936,4
1643468670872,22856.6684965,16
1643468670872,22856.6684996,32
1643468670872,22856.6685034,23
1643468670872,22856.6685076,37
1643468670872,22856.6685106,75
1643468670915,22856.6685138,54
1643468670915,22856.668518,23
1643468670915,22856.6685211,77
1643468670915,22856.6685254,115
1643468670915,22856.6685284,75
1643468670915,22856.6685324,68
1643468670915,22856.6685354,110
1643468670915,22856.6685386,131
1643468670915,22856.6685505,117
1643468670915,22856.6685714,75
1643468670953,22856.6685783,65
1643468670953,22856.6685829,113
1643468670953,22856.6685878,108
1643468670953,22856.6685926,58
1643468670953,22856.6685978,49
1643468670953,22856.668601,25
1643468670953,22856.6686041,-32
1643468670953,22856.668608,-4
1643468670953,22856.6686249,37
1643468670953,22856.668633,11
1643468670975,22856.6686366,7
1643468670975,22856.6686395,47
1643468670975,22856.6686423,58
1643468670975,22856.6686451,42
1643468671324,22856.6686479,32
1643468671324,22856.6686507,7
1643468671324,22856.6686535,-18
1643468671324,22856.6686564,-2
1643468671324,22856.6686592,23
1643468671324,22856.668662,25
1643468671324,22856.6686647,44
1643468671324,22856.6686675,63
1643468671324,22856.6686702,16
1643468671324,22856.6686883,-25
1643468671359,22856.6686917,-4
1643468671359,22856.6686946,11
1643468671359,22856.6686974,9
1643468671359,22856.6687002,23
1643468671359,22856.668703,47
1643468671359,22856.6687057,56
1643468671359,22856.6687183,35
1643468671359,22856.6687221,-2
1643468671359,22856.6687427,-11
1643468671359,22856.6687761,7
1643468671392,22856.6687902,14
1643468671392,22856.6687936,18
1643468671392,22856.6687964,61
1643468671392,22856.6687993,56
1643468671392,22856.6688022,-30
1643468671392,22856.6688051,-11
1643468671392,22856.668808,167
1643468671392,22856.668811,412
1643468671392,22856.6688139,640
1643468671392,22856.6688169,713
1643468671424,22856.6688198,461
1643468671424,22857.2187307,-103
1643468671424,22857.2187434,-421
1643468671424,22857.2187482,-193
1643468671424,22857.2187532,11
1643468671424,22857.2187562,-35
1643468671424,22857.2187592,-23
1643468671424,22857.2187622,4
1643468671424,22857.2187674,-63
1643468671424,22857.2187702,-84
1643468671457,22857.2187732,-49
1643468671457,22857.2187761,-58
1643468671457,22857.2187791,-63
1643468671457,22857.2187819,-7
1643468671457,22857.2187849,11
1643468671457,22857.2187878,-35
1643468671457,22857.2187907,-28
1643468671457,22857.2187937,30
1643468671457,22857.2187966,37
1643468671457,22857.2187995,-4
1643468671492,22857.2188024,-30
1643468671492,22857.2188053,2
1643468671492,22857.2188083,54
1643468671492,22857.2188112,75
1643468671492,22857.2188141,77
1643468671492,22857.218817,44
1643468671492,22857.2188199,21
1643468671492,22857.2188228,80
1643468671492,22857.2188257,113
1643468671492,22857.2188286,77
1643468671528,22857.2188316,73
1643468671528,22857.2188361,89
1643468671528,22857.2188391,82
1643468671528,22857.218842,70
1643468671528,22857.218845,58
1643468671528,22857.218848,18
1643468671528,22857.218851,-9
1643468671528,22857.218854,-11
1643468671528,22857.2188569,-28
1643468671528,22857.2188599,-21
1643468671560,22857.2188628,-35
1643468671560,22857.2188658,-77
1643468671560,22857.2188687,-32
1643468671560,22857.2188716,28
1643468672024,22857.2188746,25
1643468672024,22857.2188774,-7
1643468672024,22857.2188803,-70
1643468672024,22857.2188831,-94
1643468672024,22857.2188859,0
1643468672024,22857.2188887,75
1643468672024,22857.2188915,40
1643468672024,22857.2188943,28
1643468672024,22857.218897,58
1643468672024,22857.2188998,21
1643468672059,22857.2189025,11
1643468672059,22857.2189053,106
1643468672059,22857.2189081,84
1643468672059,22857.2189108,-61
1643468672059,22857.2189135,-58
1643468672059,22857.2189163,68
1643468672059,22857.218919,115
1643468672059,22857.218922,91
1643468672059,22857.2189249,63
1643468672059,22857.2189278,11
1643468672091,22857.2189308,-18
1643468672091,22857.2189337,63
1643468672091,22857.2189367,155
1643468672091,22857.2189396,75
1643468672091,22857.2189425,-37
1643468672091,22857.2189455,-40
1643468672091,22857.2189485,-28
1643468672091,22857.2189515,-49
1643468672091,22857.2189565,-42
1643468672091,22857.2189594,18
1643468672125,22857.9171184,204
1643468672125,22857.9171306,501
1643468672125,22857.9171341,713
1643468672125,22857.9171392,610
1643468672125,22857.9171425,174
1643468672125,22857.9171503,-315
1643468672125,22857.9171533,-419
1643468672125,22857.9171564,-207
1643468672125,22857.9171618,-106
1643468672125,22857.9171647,-82
1643468672161,22857.9171678,2
1643468672161,22857.9171708,16
1643468672161,22857.9171738,-35
1643468672161,22857.9171781,-51
1643468672161,22857.9171811,-49
1643468672161,22857.917184,-28
1643468672161,22857.9171869,-18
1643468672161,22857.9171899,-63
1643468672161,22857.9171954,-70
1643468672161,22857.9171984,-70
1643468672192,22857.9172014,-89
1643468672192,22857.9172044,-37
1643468672192,22857.9172074,18
1643468672192,22857.9172105,7
1643468672192,22857.9172155,-2
1643468672192,22857.9172185,-4
1643468672192,22857.9172233,-16
1643468672192,22857.9172263,14
1643468672192,22857.9172312,40
1643468672192,22857.9172344,32
1643468672224,22857.9172391,73
1643468672224,22857.9172421,117
1643468672224,22857.9172469,73
1643468672224,22857.9172499,23
1643468672224,22857.9172528,49
1643468672224,22857.9172558,77
1643468672224,22857.9172588,70
1643468672224,22857.9172618,73
1643468672224,22857.9172667,103
1643468672224,22857.9172697,91
1643468672258,22857.9172748,21
1643468672258,22857.9172778,-14
1643468672258,22857.9172808,35
1643468672258,22857.9172849,115
1643468672556,22857.917288,115
1643468672556,22857.917291,44
1643468672556,22857.9172938,25
1643468672556,22857.9172966,42
1643468672556,22857.9172993,42
1643468672556,22857.9173022,44
1643468672556,22857.9173049,21
1643468672556,22857.9173077,0
1643468672556,22857.9173106,47
1643468672556,22857.9173133,91
1643468672589,22857.9173161,58
1643468672589,22857.9173189,4
1643468672589,22857.9173217,7
1643468672589,22857.9173245,0
1643468672589,22857.9173273,-18
1643468672589,22857.9173301,-11
1643468672589,22857.917333,-14
1643468672589,22857.9173358,-7
1643468672589,22857.9173386,58
1643468672589,22857.9173414,106
1643468672625,22857.9173442,70
1643468672625,22857.917347,32
1643468672625,22857.9173497,30
1643468672625,22857.9173525,7
1643468672625,22857.9173553,21
1643468672625,22857.9173582,77
1643468672625,22857.9173611,44
1643468672625,22857.917364,-9
1643468672625,22857.9173669,2
1643468672625,22858.4679686,-2
1643468672657,22858.4679811,-9
1643468672657,22858.4679846,11
1643468672657,22858.4679876,37
1643468672657,22858.4679904,164
1643468672657,22858.4679934,452
1643468672657,22858.4679962,697
1643468672657,22858.467999,652
1643468672657,22858.4680018,280
1643468672657,22858.4680046,-202
1643468672657,22858.4680074,-372
1643468672692,22858.4680102,-179
1643468672692,22858.4680129,-54
1643468672692,22858.4680157,-75
1643468672692,22858.4680185,-25
1643468672692,22858.4680216,28
1643468672692,22858.4680244,16
1643468672692,22858.4680271,-25
1643468672692,22858.4680299,-65
1643468672692,22858.4680328,7
1643468672692,22858.4680356,101
1643468672725,22858.4680386,49
1643468672725,22858.4680418,-7
1643468672725,22858.4680448,16
1643468672725,22858.4680477,0
1643468672725,22858.4680506,-49
1643468672725,22858.4680533,-40
1643468672725,22858.4680563,25
1643468672725,22858.4680591,54
1643468672725,22858.468062,23
1643468672725,22858.4680648,23
1643468672759,22858.4680676,61
1643468672759,22858.4680705,77
1643468672759,22858.4680733,68
1643468672759,22858.4680761,68
1643468672759,22858.4680789,77
1643468672759,22858.4680819,87
1643468672759,22858.4680848,96
1643468672759,22858.4680875,89
1643468672759,22858.4680903,51
1643468672759,22858.4680931,30
1643468672791,22858.4680959,80
1643468672791,22858.4680987,122
1643468672791,22858.4681015,51
1643468672791,22858.4681043,-35
1643468673058,22858.4681073,-16
1643468673058,22858.4681101,21
1643468673058,22858.4681129,-2
1643468673058,22858.4681157,-11
1643468673058,22858.4681185,25
1643468673058,22858.4681214,42
1643468673058,22858.4681242,7
1643468673058,22858.468127,-16
1643468673058,22858.4681297,21
1643468673058,22858.4681325,37
1643468673091,22858.4681353,-2
1643468673091,22858.4681381,9
1643468673091,22858.468141,65
1643468673091,22858.4681437,101
1643468673091,22858.4681465,82
1643468673091,22858.4681538,23
1643468673091,22858.4681569,-4
1643468673091,22858.4681686,-7
1643468673091,22858.4681955,-14
1643468673091,22858.4682,-2
1643468673123,22858.4682033,4
1643468673123,22858.4682062,-16
1643468673123,22858.468209,-14
1643468673123,22858.4682118,28
1643468673123,22858.4682146,28
1643468673123,22858.4682174,21
1643468673123,22858.4682201,82
1643468673123,22858.468223,101
1643468673123,22858.9697917,49
1643468673123,22858.9698058,23
1643468673158,22858.9698101,-2
1643468673158,22858.9698157,-28
1643468673158,22858.969819,-16
1643468673158,22858.9698241,9
1643468673158,22858.9698273,18
1643468673158,22858.9698303,32
1643468673158,22858.9698333,131
1643468673158,22858.9698363,365
1643468673158,22858.9698394,605
1643468673158,22858.9698424,711
1643468673189,22858.9698454,638
1643468673189,22858.9698484,204
1643468673189,22858.9698515,-393
1643468673189,22858.9698566,-478
1643468673189,22858.9698598,-131
1643468673189,22858.969863,-16
1643468673189,22858.9698678,-110
1643468673189,22858.9698709,-106
1643468673189,22858.969874,-58
1643468673189,22858.9698772,-61
1643468673223,22858.9698821,-61
1643468673223,22858.9698852,-58
1643468673223,22858.9698882,-80
1643468673223,22858.9698913,-94
1643468673223,22858.9698942,-61
1643468673223,22858.9698974,2
1643468673223,22858.9699024,25
1643468673223,22858.9699054,-37
1643468673223,22858.9699087,-73
1643468673223,22858.9699135,-14
1643468673257,22858.9699168,23
1643468673257,22858.9699223,2
1643468673257,22858.9699254,7
1643468673257,22858.9699304,40
1643468673257,22858.9699336,49
1643468673257,22858.9699385,51
1643468673257,22858.9699417,58
1643468673257,22858.9699448,47
1643468673257,22858.9699479,40
1643468673257,22858.9699509,63
1643468673292,22858.969954,94
1643468673292,22858.969957,96
1643468673292,22858.96996,89
1643468673292,22858.969963,98
1643468673623,22858.969966,91
1643468673623,22858.9699689,47
1643468673623,22858.9699718,18
1643468673623,22858.9699747,25
1643468673623,22858.9699775,23
1643468673623,22858.9699804,0
1643468673623,22858.9699833,-40
1643468673623,22858.9699861,-51
1643468673623,22858.969989,-21
1643468673623,22858.9699919,-4
1643468673656,22858.9699947,-4
1643468673656,22858.9699976,-7
1643468673656,22858.9700004,-18
1643468673656,22858.9700033,-7
1643468673656,22858.9700062,11
1643468673656,22858.9700091,-7
1643468673656,22858.9700119,-2
1643468673656,22858.9700148,32
1643468673656,22858.9700181,32
1643468673656,22858.970021,23
1643468673690,22858.9700239,14
1643468673690,22858.9700268,-28
1643468673690,22858.9700297,-44
1643468673690,22858.9700326,-16
1643468673690,22858.9700356,-4
1643468673690,22858.9700385,2
1643468673690,22858.9700414,9
1643468673690,22859.5180783,18
1643468673690,22859.5180911,51
1643468673690,22859.5180958,44
1643468673724,22859.518101,-18
1643468673724,22859.518105,-47
1643468673724,22859.5181099,-18
1643468673724,22859.5181131,-11
1643468673724,22859.5181182,-40
1643468673724,22859.5181212,-28
1643468673724,22859.5181253,18
1643468673724,22859.5181301,11
1643468673724,22859.5181333,7
1643468673724,22859.5181383,181
1643468673756,22859.5181415,480
1643468673756,22859.5181465,664
1643468673756,22859.5181495,617
1643468673756,22859.5181552,263
1643468673756,22859.5181583,-294
1643468673756,22859.5181631,-482
1643468673756,22859.5181663,-193
1643468673756,22859.5181693,-42
1643468673756,22859.5181728,-146
1643468673756,22859.5181767,-148
1643468673790,22859.5181796,-63
1643468673790,22859.5181844,-65
1643468673790,22859.5181903,-115
1643468673790,22859.5181961,-124
1643468673790,22859.518201,-68
1643468673790,22859.5182655,-14
1643468673790,22859.5182765,-16
1643468673790,22859.5182801,-23
1643468673790,22859.5182847,-9
1643468673790,22859.5182876,-9
1643468673826,22859.5182904,-7
1643468673826,22859.5182935,0
1643468673826,22859.5182966,-4
1643468673826,22859.5182995,-11
1643468673826,22859.5183026,16
1643468673826,22859.5183056,63
1643468673826,22859.5183087,61
1643468673826,22859.5183139,40
1643468673826,22859.5183169,68
1643468673826,22859.5183199,80
1643468673857,22859.5183229,61
1643468673857,22859.518326,84
1643468673857,22859.5183316,117
1643468673857,22859.5183346,61
1643468674266,22859.5183377,7
1643468674266,22859.5183406,63
1643468674266,22859.5183435,101
1643468674266,22859.5183464,58
1643468674266,22859.5183492,25
1643468674266,22859.518352,16
1643468674266,22859.5183552,4
1643468674266,22859.5183584,35
1643468674266,22859.5183613,75
1643468674266,22859.5183641,35
1643468674291,22859.5183669,-25
1643468674291,22859.5183697,-9
1643468674291,22859.5183726,21
1643468674291,22859.5183753,-16
1643468674291,22859.5183782,-44
1643468674291,22859.5183811,-18
1643468674291,22859.5183839,4
1643468674291,22859.5183868,61
1643468674291,22859.5183896,91
1643468674291,22859.5183924,21
1643468674313,22859.5183953,7
1643468674313,22859.5183982,37
1643468674313,22859.5184013,7
1643468674313,22859.5184047,-4
1643468674313,22859.5184101,7
1643468674313,22859.5184133,-14
1643468674313,22860.1674834,-47
1643468674313,22860.1674998,-40
1643468674313,22860.1675035,47
1643468674313,22860.1675089,77
1643468674333,22860.1675118,14
1643468674333,22860.1675162,14
1643468674333,22860.1675217,42
1643468674333,22860.1675248,14
1643468674333,22860.167528,-21
1643468674333,22860.167531,-28
1643468674333,22860.167534,2
1643468674333,22860.1675371,25
1643468674333,22860.1675402,-9
1643468674333,22860.1675453,-30
1643468674360,22860.1675484,-21
1643468674360,22860.1675516,9
1643468674360,22860.1675546,153
1643468674360,22860.1675578,421
1643468674360,22860.167561,638
1643468674360,22860.1675641,581
1643468674360,22860.1675692,200
1643468674360,22860.1675731,-263
1643468674360,22860.1675783,-376
1643468674360,22860.167582,-150
1643468674381,22860.1675851,-37
1643468674381,22860.1675881,-75
1643468674381,22860.1675913,-23
1643468674381,22860.1675963,-23
1643468674381,22860.1676001,-157
1643468674381,22860.1676052,-148
1643468674381,22860.1676083,-37
1643468674381,22860.1676112,-28
1643468674381,22860.1676144,-32
1643468674381,22860.1676175,-23
1643468674414,22860.1676224,-25
1643468674414,22860.1676263,2
1643468674414,22860.1676313,25
1643468674414,22860.1676348,47
1643468674414,22860.167638,42
1643468674414,22860.167641,-28
1643468674414,22860.1676441,-11
1643468674414,22860.1676471,44
1643468674414,22860.1676502,23
1643468674414,22860.1676533,32
1643468674445,22860.1676562,25
1643468674445,22860.1676614,-4
1643468674445,22860.1676646,32
1643468674445,22860.1676677,77
1643468674816,22860.1676707,84
1643468674816,22860.1676736,87
1643468674816,22860.1676765,80
1643468674816,22860.1676793,65
1643468674816,22860.1676822,65
1643468674816,22860.1676851,75
1643468674816,22860.1676879,61
1643468674816,22860.1676907,4
1643468674816,22860.1676936,-4
1643468674816,22860.1676964,68
1643468674848,22860.1676993,65
1643468674848,22860.1677021,-32
1643468674848,22860.1677049,-44
1643468674848,22860.1677078,44
1643468674848,22860.1677106,89
1643468674848,22860.1677134,75
1643468674848,22860.1677162,54
1643468674848,22860.167719,18
1643468674848,22860.1677219,7
1643468674848,22860.1677247,32
1643468674884,22860.1677275,51
1643468674884,22860.1677304,49
1643468674884,22860.1677333,25
1643468674884,22860.1677361,-2
1643468674884,22860.167739,-7
1643468674884,22860.7173568,0
1643468674884,22860.7173687,7
1643468674884,22860.7173722,18
1643468674884,22860.7173752,40
1643468674884,22860.7173782,21
1643468674915,22860.7173813,-40
1643468674915,22860.7173843,-47
1643468674915,22860.7173873,35
1643468674915,22860.7173902,82
1643468674915,22860.7173931,49
1643468674915,22860.7173967,11
1643468674915,22860.7173996,-9
1643468674915,22860.7174025,-32
1643468674915,22860.7174055,-21
1643468674915,22860.7174084,16
1643468674946,22860.7174113,25
1643468674946,22860.7174142,56
1643468674946,22860.7174172,73
1643468674946,22860.7174201,-23
1643468674946,22860.7174231,-32
1643468674946,22860.7174261,193
1643468674946,22860.7174291,482
1643468674946,22860.717432,687
1643468674946,22860.717435,704
1643468674946,22860.7174379,329
1643468674981,22860.7174409,-270
1643468674981,22860.7174438,-457
1643468674981,22860.7174468,-204
1643468674981,22860.7174497,-77
1643468674981,22860.7174527,-108
1643468674981,22860.7174556,-61
1643468674981,22860.7174585,-35
1643468674981,22860.7174614,-80
1643468674981,22860.7174644,-89
1643468674981,22860.7174673,-63
1643468675014,22860.7174702,-23
1643468675014,22860.7174731,9
1643468675014,22860.7174762,9
1643468675014,22860.7174792,11
1643468675014,22860.7174823,28
1643468675014,22860.7174852,21
1643468675014,22860.7174882,4
1643468675014,22860.7174911,4
1643468675014,22860.7174941,14
1643468675014,22860.7174971,32
1643468675048,22860.7175,49
1643468675048,22860.7175029,56
1643468675048,22860.7175058,84
1643468675048,22860.7175088,94
1643468675257,22860.7175117,54
1643468675257,22860.7175146,42
1643468675257,22860.7175175,89
1643468675257,22860.7175204,84
1643468675257,22860.7175233,51
1643468675257,22860.7175262,73
1643468675257,22860.7175292,75
1643468675257,22860.7175322,44
1643468675257,22860.7175352,40
1643468675257,22860.7175387,56
1643468675280,22860.7175421,91
1643468675280,22860.7175451,96
1643468675280,22860.717548,51
1643468675280,22860.7175511,9
1643468675280,22860.7175542,-14
1643468675280,22860.7175571,-14
1643468675280,22860.71756,4
1643468675280,22860.717563,18
1643468675280,22860.7175659,35
1643468675280,22860.7175689,37
1643468675312,22860.7175719,11
1643468675312,22860.7175754,7
1643468675312,22860.7175784,18
1643468675312,22860.7175814,0
1643468675312,22861.1694959,14
1643468675312,22861.1695093,65
1643468675312,22861.169513,61
1643468675312,22861.1695185,18
1643468675312,22861.1695221,9
1643468675312,22861.169527,21
1643468675349,22861.1695302,0
1643468675349,22861.1695352,-21
1643468675349,22861.1695384,-16
1643468675349,22861.1695414,-18
1643468675349,22861.1695448,11
1643468675349,22861.1695513,63
1643468675349,22861.1695545,47
1643468675349,22861.1695596,28
1643468675349,22861.1695626,58
1643468675349,22861.1695657,47
1643468675389,22861.1695707,-4
1643468675389,22861.1695939,-30
1643468675389,22861.1695994,-18
1643468675389,22861.1696026,-14
1643468675389,22861.1696075,-7
1643468675389,22861.1696106,7
1643468675389,22861.1696157,-18
1643468675389,22861.1696188,-35
1643468675389,22861.1696218,115
1643468675389,22861.169625,438
1643468675413,22861.1696297,718
1643468675413,22861.1696327,815
1643468675413,22861.1696358,577
1643468675413,22861.1696388,-61
1643468675413,22861.169642,-525
1643468675413,22861.1696449,-355
1643468675413,22861.169649,-61
1643468675413,22861.169652,-61
1643468675413,22861.169655,-113
1643468675413,22861.169658,-77
1643468675445,22861.169661,-73
1643468675445,22861.1696724,-87
1643468675445,22861.1696771,-54
1643468675445,22861.1696801,-35
1643468675445,22861.1696831,-63
1643468675445,22861.1696862,-68
1643468675445,22861.1696914,-37
1643468675445,22861.1696947,-9
1643468675445,22861.1696976,7
1643468675445,22861.1697008,4
1643468675478,22861.1697049,-18
1643468675478,22861.1697077,-18
1643468675478,22861.1697106,16
1643468675478,22861.1697135,23
1643468675911,22861.1697164,11
1643468675911,22861.1697193,21
1643468675911,22861.1697222,28
1643468675911,22861.1697251,16
1643468675911,22861.1697279,21
1643468675911,22861.1697308,14
1643468675911,22861.1697337,-2
1643468675911,22861.1697366,30
1643468675911,22861.1697396,56
1643468675911,22861.1697425,42
1643468675944,22861.1697455,42
1643468675944,22861.1697486,47
1643468675944,22861.1697515,40
1643468675944,22861.1697545,32
1643468675944,22861.1697574,37
1643468675944,22861.1697603,49
1643468675944,22861.1697632,40
1643468675944,22861.1697661,-2
1643468675944,22861.169769,-23
1643468675944,22861.1697718,-16
1643468675978,22861.1697748,-40
1643468675978,22861.1697778,-63
1643468675978,22861.1697807,-23
1643468675978,22861.8152009,35
1643468675978,22861.8152132,32
1643468675978,22861.8152178,-9
1643468675978,22861.8152231,11
1643468675978,22861.8152261,129
1643468675978,22861.8152291,94
1643468675978,22861.8152322,-134
1643468676013,22861.8152372,-169
1643468676013,22861.8152402,-44
1643468676013,22861.8152432,-68
1643468676013,22861.8152461,-124
1643468676013,22861.8152503,-77
1643468676013,22861.8152533,-35
1643468676013,22861.8152563,-49
1643468676013,22861.8152613,-37
1643468676013,22861.8152659,-25
1643468676013,22861.8152708,-47
1643468676045,22861.8152742,-7
1643468676045,22861.8152793,30
1643468676045,22861.8152823,-40
1643468676045,22861.8152869,-82
1643468676045,22861.8152899,-28
1643468676045,22861.8152929,-16
1643468676045,22861.8152979,-49
1643468676045,22861.8153008,-51
1643468676045,22861.8153038,-56
1643468676045,22861.8153068,-51
1643468676078,22861.8153098,47
1643468676078,22861.8153136,266
1643468676078,22861.8153167,520
1643468676078,22861.8153205,659
1643468676078,22861.8153235,539
1643468676078,22861.8153275,61
1643468676078,22861.8153306,-421
1643468676078,22861.8153357,-367
1643468676078,22861.8153404,-80
1643468676078,22861.8153452,-82
1643468676113,22861.8153483,-146
1643468676113,22861.8153531,-65
1643468676113,22861.8153575,-40
1643468676113,22861.8153613,-82
1643468676113,22861.8153644,-61
1643468676113,22861.8153683,-51
1643468676113,22861.8153714,-108
1643468676113,22861.8153753,-117
1643468676113,22861.815381,-73
1643468676113,22861.815386,-58
1643468676144,22861.8153891,-68
1643468676144,22861.815392,-73
1643468676144,22861.8153949,-37
1643468676144,22861.8153977,18
1643468676446,22861.8154101,2
1643468676446,22861.8154147,-35
1643468676446,22861.8154177,-11
1643468676446,22861.8154206,21
1643468676446,22861.8154235,49
1643468676446,22861.8154264,68
1643468676446,22861.8154293,28
1643468676446,22861.8154322,9
1643468676446,22861.8154351,40
1643468676446,22861.8154379,21
1643468676478,22861.815453,0
1643468676478,22861.8154562,28
1643468676478,22861.815459,37
1643468676478,22861.8154618,18
1643468676478,22861.8154646,0
1643468676478,22861.8154675,-11
1643468676478,22861.8154848,-11
1643468676478,22861.8154937,-16
1643468676478,22861.8154973,-30
1643468676478,22861.8155003,-30
1643468676515,22861.8155031,-28
1643468676515,22861.8155061,-35
1643468676515,22862.3652298,-14
1643468676515,22862.3652422,-4
1643468676515,22862.3652458,-44
1643468676515,22862.3652501,-58
1643468676515,22862.3652531,-30
1643468676515,22862.3652559,-30
1643468676515,22862.3652588,-30
1643468676515,22862.3652616,-7
1643468676545,22862.3652647,-16
1643468676545,22862.3652678,-42
1643468676545,22862.3652708,-42
1643468676545,22862.3652738,-49
1643468676545,22862.3652769,-68
1643468676545,22862.36528,-82
1643468676545,22862.365283,-80
1643468676545,22862.3652861,-37
1643468676545,22862.3652903,2
1643468676545,22862.3652934,-2
1643468676567,22862.3652987,-9
1643468676567,22862.3653019,4
1643468676567,22862.3653069,-23
1643468676567,22862.3653101,-77
1643468676567,22862.365315,-84
1643468676567,22862.3653181,-96
1643468676567,22862.3653232,-98
1643468676567,22862.3653263,-40
1643468676567,22862.3653313,-2
1643468676567,22862.3653344,-35
1643468676590,22862.3653394,-65
1643468676590,22862.3653425,-32
1643468676590,22862.3653474,103
1643468676590,22862.3653505,353
1643468676590,22862.3653536,579
1643468676590,22862.3653587,577
1643468676590,22862.3653618,249
1643468676590,22862.3653668,-252
1643468676590,22862.3653699,-464
1643468676590,22862.3653748,-247
1643468676613,22862.3653781,-77
1643468676613,22862.3653831,-131
1643468676613,22862.3653863,-150
1643468676613,22862.3653912,-98
1643468676613,22862.3653943,-84
1643468676613,22862.3653992,-103
1643468676613,22862.3654023,-117
1643468676613,22862.3654055,-98
1643468676613,22862.3654104,-49
1643468676613,22862.3654135,-30
1643468676635,22862.3654185,-54
1643468676635,22862.3654216,-51
1643468676635,22862.3654256,-47
1643468676635,22862.3654286,-35
1643468677103,22862.3654316,16
1643468677103,22862.3654347,32
1643468677103,22862.3654377,4
1643468677103,22862.3654406,4
1643468677103,22862.3654434,16
1643468677103,22862.3654463,16
1643468677103,22862.3654494,37
1643468677103,22862.3654522,51
1643468677103,22862.3654551,37
1643468677103,22862.3654579,51
1643468677136,22862.3654609,80
1643468677136,22862.3654638,68
1643468677136,22862.3654667,51
1643468677136,22862.3654696,56
1643468677136,22862.3654725,61
1643468677136,22862.3654754,70
1643468677136,22862.3654783,77
1643468677136,22862.3654811,47
1643468677136,22862.3654841,16
1643468677136,22862.365487,30
1643468677167,22862.3654899,28
1643468677167,22863.0126894,4
1643468677167,22863.0127031,28
1643468677167,22863.0127067,58
1643468677167,22863.012712,28
1643468677167,22863.0127156,-4
1643468677167,22863.0127208,16
1643468677167,22863.0127244,42
1643468677167,22863.0127276,56
1643468677167,22863.0127325,73
1643468677201,22863.0127356,49
1643468677201,22863.0127405,21
1643468677201,22863.0127436,0
1643468677201,22863.0127484,-44
1643468677201,22863.0127515,-44
1643468677201,22863.0127545,16
1643468677201,22863.0127598,30
1643468677201,22863.0127628,-4
1643468677201,22863.0127677,4
1643468677201,22863.0127707,37
1643468677236,22863.0127755,49
1643468677236,22863.0127785,2
1643468677236,22863.0127836,-65
1643468677236,22863.0127867,-54
1643468677236,22863.0127916,-23
1643468677236,22863.0127947,-35
1643468677236,22863.0127977,-35
1643468677236,22863.0128007,-21
1643468677236,22863.0128057,2
1643468677236,22863.0128088,28
1643468677268,22863.0128136,0
1643468677268,22863.0128176,-82
1643468677268,22863.0128225,-101
1643468677268,22863.0128257,18
1643468677268,22863.0128305,275
1643468677268,22863.0128335,588
1643468677268,22863.0128364,753
1643468677268,22863.0128394,624
1643468677268,22863.0128444,164
1643468677268,22863.0128475,-332
1643468677301,22863.0128522,-362
1643468677301,22863.0128552,-110
1643468677301,22863.01286,-82
1643468677301,22863.012863,-122
1643468677301,22863.0128678,-44
1643468677301,22863.0128708,-40
1643468677301,22863.0128757,-77
1643468677301,22863.0128786,-11
1643468677301,22863.0128816,14
1643468677301,22863.0128845,-40
1643468677334,22863.0128876,-21
1643468677334,22863.0128924,32
1643468677334,22863.0128954,-7
1643468677334,22863.0128984,-44
1643468677668,22863.0129034,-14
1643468677668,22863.0129065,-11
1643468677668,22863.0129094,11
1643468677668,22863.0129123,87
1643468677668,22863.0129153,131
1643468677668,22863.0130194,94
1643468677668,22863.0130403,32
1643468677668,22863.0130593,65
1643468677668,22863.0130655,115
1643468677668,22863.0130687,68
1643468677701,22863.0130735,32
1643468677701,22863.0130765,73
1643468677701,22863.0130814,96
1643468677701,22863.0130844,75
1643468677701,22863.0130893,68
1643468677701,22863.0130923,89
1643468677701,22863.0130974,103
1643468677701,22863.013101,108
1643468677701,22863.0131057,98
1643468677701,22863.0131088,54
1643468677734,22863.5687309,9
1643468677734,22863.5687442,37
1643468677734,22863.5687481,56
1643468677734,22863.5687512,-4
1643468677734,22863.5687559,7
1643468677734,22863.5687597,75
1643468677734,22863.5687628,77
1643468677734,22863.5687679,58
1643468677734,22863.568772,23
1643468677734,22863.5687769,-9
1643468677767,22863.5687798,11
1643468677767,22863.568784,32
1643468677767,22863.5687874,14
1643468677767,22863.5687923,18
1643468677767,22863.5687969,58
1643468677767,22863.5688021,61
1643468677767,22863.5688058,21
1643468677767,22863.5688108,-4
1643468677767,22863.5688141,-32
1643468677767,22863.5688189,-91
1643468677802,22863.5688218,-98
1643468677802,22863.5688249,9
1643468677802,22863.56883,58
1643468677802,22863.5688331,-7
1643468677802,22863.5688379,11
1643468677802,22863.568841,63
1643468677802,22863.5688442,7
1643468677802,22863.5688472,-49
1643468677802,22863.5688511,-49
1643468677802,22863.568856,-54
1643468677834,22863.5688591,-25
1643468677834,22863.5688622,11
1643468677834,22863.5688653,-42
1643468677834,22863.5688692,-75
1643468677834,22863.568874,11
1643468677834,22863.5688769,155
1643468677834,22863.56888,407
1643468677834,22863.5688849,723
1643468677834,22863.5688878,843
1643468677834,22863.5688909,499
1643468677869,22863.5688961,-179
1643468677869,22863.5688993,-506
1643468677869,22863.5689041,-273
1643468677869,22863.568907,-98
1643468677869,22863.5689101,-106
1643468677869,22863.5689146,-16
1643468677869,22863.5689177,2
1643468677869,22863.5689206,-91
1643468677869,22863.5689237,-82
1643468677869,22863.5689279,-37
1643468677901,22863.5689309,-37
1643468677901,22863.5689341,-9
1643468677901,22863.5689391,7
1643468677901,22863.5689421,-9
1643468678102,22863.5689451,2
1643468678102,22863.5689481,44
1643468678102,22863.568951,40
1643468678102,22863.5689537,16
1643468678102,22863.5689565,21
1643468678102,22863.5689594,42
1643468678102,22863.5689622,54
1643468678102,22863.5689649,42
1643468678102,22863.5689677,68
1643468678102,22863.5689706,91
1643468678137,22863.5689735,51
1643468678137,22863.5689763,25
1643468678137,22863.5689791,70
1643468678137,22863.5689819,131
1643468678137,22863.5689847,131
1643468678137,22863.5689877,94
1643468678137,22863.5689905,87
1643468678137,22863.5689935,84
1643468678137,22863.5689966,35
1643468678137,22864.01754,28
1643468678168,22864.0175514,122
1643468678168,22864.0175549,146
1643468678168,22864.0175578,14
1643468678168,22864.0175607,-49
1643468678168,22864.0175636,11
1643468678168,22864.0175663,37
1643468678168,22864.0175691,18
1643468678168,22864.017572,21
1643468678168,22864.0175748,9
1643468678168,22864.0175776,7
1643468678202,22864.0175804,58
1643468678202,22864.0175833,87
1643468678202,22864.0175861,54
1643468678202,22864.017589,37
1643468678202,22864.0175922,49
1643468678202,22864.017595,16
1643468678202,22864.0175978,-16
1643468678202,22864.0176005,23
1643468678202,22864.0176034,37
1643468678202,22864.0176061,14
1643468678238,22864.0176089,35
1643468678238,22864.0176117,56
1643468678238,22864.0176144,54
1643468678238,22864.0176172,65
1643468678238,22864.01762,44
1643468678238,22864.0176228,-14
1643468678238,22864.0176256,-40
1643468678238,22864.0176284,-49
1643468678238,22864.0176311,-56
1643468678238,22864.0176339,-25
1643468678267,22864.0176366,-16
1643468678267,22864.0176393,-56
1643468678267,22864.0176421,-61
1643468678267,22864.0176449,-11
1643468678267,22864.0176477,113
1643468678267,22864.0176505,343
1643468678267,22864.0176533,577
1643468678267,22864.017656,695
1643468678267,22864.0176588,482
1643468678267,22864.0176616,-134
1643468678300,22864.0176644,-511
1643468678300,22864.0176671,-278
1643468678300,22864.0176699,-68
1643468678300,22864.0176727,-143
1643468678300,22864.0176754,-174
1643468678300,22864.0176782,-98
1643468678300,22864.017681,-35
1643468678300,22864.0176838,-25
1643468678300,22864.0176866,-58
1643468678300,22864.0176894,-70
1643468678335,22864.0176921,-44
1643468678335,22864.0176948,-23
1643468678335,22864.0176977,-37
1643468678335,22864.0177005,-73
1643468678601,22864.0177032,-84
1643468678601,22864.017706,-23
1643468678601,22864.0177088,40
1643468678601,22864.0177115,40
1643468678601,22864.0177143,47
1643468678601,22864.017717,56
1643468678601,22864.0177197,35
1643468678601,22864.0177224,37
1643468678601,22864.0177251,37
1643468678601,22864.0177279,28
1643468678634,22864.0177306,58
1643468678634,22864.0177334,77
1643468678634,22864.0177361,56
1643468678634,22864.0177389,32
1643468678634,22864.0177416,28
1643468678634,22864.0177443,37
1643468678634,22864.0177471,40
1643468678634,22864.0177499,30
1643468678634,22864.5178884,-2
1643468678634,22864.5179034,-35
1643468678668,22864.5179083,18
1643468678668,22864.5179129,51
1643468678668,22864.5179161,-56
1643468678668,22864.5179191,-94
1643468678668,22864.5179222,-4
1643468678668,22864.5179265,-4
1643468678668,22864.5179295,-28
1643468678668,22864.5179324,28
1643468678668,22864.5179354,37
1643468678668,22864.5179382,-28
1643468678702,22864.5179412,-54
1643468678702,22864.5179442,-28
1643468678702,22864.517947,-4
1643468678702,22864.5179516,-9
1643468678702,22864.5179574,-16
1643468678702,22864.5179615,14
1643468678702,22864.5179646,21
1643468678702,22864.51797,-9
1643468678702,22864.5179732,-28
1643468678702,22864.517978,-35
1643468678734,22864.5179813,-25
1643468678734,22864.5179863,-2
1643468678734,22864.5179895,25
1643468678734,22864.5179946,65
1643468678734,22864.5179978,65
1643468678734,22864.5180027,11
1643468678734,22864.5180059,-2
1643468678734,22864.5180108,-14
1643468678734,22864.5180139,-70
1643468678734,22864.518019,-56
1643468678769,22864.5180223,7
1643468678769,22864.5180271,-11
1643468678769,22864.5180304,-44
1643468678769,22864.5180353,-14
1643468678769,22864.5180385,-30
1643468678769,22864.5180467,2
1643468678769,22864.51805,261
1643468678769,22864.5180531,530
1643468678769,22864.518056,567
1643468678769,22864.518059,499
1643468678800,22864.518062,235
1643468678800,22864.5180673,-259
1643468678800,22864.5180705,-412
1643468678800,22864.5180754,-162
1643468678800,22864.5180786,-63
1643468678800,22864.5180839,-73
1643468678800,22864.5180873,-21
1643468678800,22864.5180922,-40
1643468678800,22864.5180953,-68
1643468678800,22864.5181006,-61
1643468678834,22864.5181038,-91
1643468678834,22864.518109,-84
1643468678834,22864.5181121,-21
1643468678834,22864.518117,-23
1643468679502,22864.5181203,-61
1643468679502,22864.5181235,-49
1643468679502,22864.5181265,-9
1643468679502,22864.5181296,-7
1643468679502,22864.518133,-25
1643468679502,22864.5181365,16
1643468679502,22864.51814,61
1643468679502,22864.5181434,25
1643468679502,22864.5181473,9
1643468679502,22864.5181504,32
1643468679534,22864.5181532,14
1643468679534,22864.5181562,-9
1643468679534,22864.518159,32
1643468679534,22864.5181623,117
1643468679534,22864.5181653,146
1643468679534,22864.5181683,75
1643468679534,22864.5181714,16
1643468679534,22865.4142884,35
1643468679534,22865.4143017,61
1643468679534,22865.4143053,91
1643468679567,22865.4143088,96
1643468679567,22865.4143143,51
1643468679567,22865.4143175,-28
1643468679567,22865.4143206,-58
1643468679567,22865.414326,-18
1643468679567,22865.4143309,-40
1643468679567,22865.4143359,-82
1643468679567,22865.4143405,-51
1643468679567,22865.4143455,-16
1643468679567,22865.41435,2
1643468679606,22865.4143548,16
1643468679606,22865.4143587,7
1643468679606,22865.4143632,7
1643468679606,22865.4143664,0
1643468679606,22865.4143715,-35
1643468679606,22865.4143744,-49
1643468679606,22865.4143775,-28
1643468679606,22865.4143807,37
1643468679606,22865.4143847,75
1643468679606,22865.4143879,54
1643468679637,22865.4143926,80
1643468679637,22865.4143975,108
1643468679637,22865.4144015,51
1643468679637,22865.4144045,35
1643468679637,22865.4144087,82
1643468679637,22865.4144118,49
1643468679637,22865.4144167,-35
1643468679637,22865.4144215,-23
1643468679637,22865.4144268,21
1643468679637,22865.4144299,4
1643468679670,22865.4144331,9
1643468679670,22865.4144372,30
1643468679670,22865.4144403,14
1643468679670,22865.4144443,56
1643468679670,22865.4144474,124
1643468679670,22865.4144505,197
1643468679670,22865.4144548,471
1643468679670,22865.4144579,765
1643468679670,22865.4144619,727
1643468679670,22865.4144651,266
1643468679702,22865.4144703,-358
1643468679702,22865.4144733,-471
1643468679702,22865.4144765,-117
1643468679702,22865.4144817,-7
1643468679702,22865.4144848,-96
1643468679702,22865.4144888,-61
1643468679702,22865.4144918,-28
1643468679702,22865.4144948,-73
1643468679702,22865.4144979,-65
1643468679702,22865.414501,-4
1643468679743,22865.414504,18
1643468679743,22865.414507,25
1643468679743,22865.4145099,23
1643468679743,22865.4145127,-2
1643468679868,22865.4145155,16
1643468679868,22865.4145185,51
1643468679868,22865.4145214,4
1643468679868,22865.4145243,-40
1643468679868,22865.4145272,30
1643468679868,22865.4145301,89
1643468679868,22865.4145329,51
1643468679868,22865.4145358,47
1643468679868,22865.4145387,80
1643468679868,22865.4145415,54
1643468679901,22865.4145445,35
1643468679901,22865.4145475,80
1643468679901,22865.4145504,98
1643468679901,22865.4145533,40
1643468679901,22865.4145561,-11
1643468679901,22865.414559,30
1643468679901,22865.7643541,103
1643468679901,22865.7643675,108
1643468679901,22865.7643726,84
1643468679901,22865.7643778,75
1643468679934,22865.7643826,63
1643468679934,22865.7643874,98
1643468679934,22865.7643921,106
1643468679934,22865.7643962,-14
1643468679934,22865.7643993,-75
1643468679934,22865.7644033,23
1643468679934,22865.7644064,101
1643468679934,22865.7644095,49
1643468679934,22865.7644126,-18
1643468679934,22865.7644158,23
1643468679967,22865.7644208,68
1643468679967,22865.7644254,18
1643468679967,22865.7644304,-35
1643468679967,22865.7644349,-28
1643468679967,22865.76444,28
1643468679967,22865.7644448,61
1643468679967,22865.7644487,58
1643468679967,22865.7644518,80
1643468679967,22865.7644548,68
1643468679967,22865.764459,14
1643468680000,22865.7644622,-23
1643468680000,22865.7644653,-25
1643468680000,22865.7644694,28
1643468680000,22865.7644724,89
1643468680000,22865.7644756,77
1643468680000,22865.7644808,47
1643468680000,22865.7644841,42
1643468680000,22865.7644881,23
1643468680000,22865.7644912,-37
1643468680000,22865.7644952,-94
1643468680034,22865.7644984,-63
1643468680034,22865.7645033,-7
1643468680034,22865.7645081,-32
1643468680034,22865.764513,-77
1643468680034,22865.7645176,-58
1643468680034,22865.7645216,77
1643468680034,22865.7645247,353
1643468680034,22865.7645287,624
1643468680034,22865.7645318,735
1643468680034,22865.7645349,530
1643468680068,22865.7645401,-73
1643468680068,22865.7645432,-506
1643468680068,22865.7645482,-318
1643468680068,22865.7645526,-82
1643468680068,22865.7645576,-120
1643468680068,22865.7645607,-117
1643468680068,22865.7645647,-131
1643468680068,22865.7645679,-183
1643468680068,22865.7645727,-124
1643468680068,22865.7645775,-80
1643468680102,22865.7645827,-113
1643468680102,22865.7645857,-106
1643468680102,22865.7645888,-61
1643468680102,22865.7645919,-68
1643468680301,22865.7645961,-63
1643468680301,22865.7645991,-7
1643468680301,22865.764602,-42
1643468680301,22865.7646049,-101
1643468680301,22865.7646079,-23
1643468680301,22865.7646107,35
1643468680301,22865.7646136,-7
1643468680301,22865.7646166,-4
1643468680301,22865.7646195,44
1643468680301,22865.7646225,37
1643468680337,22865.7646254,21
1643468680337,22865.7646284,51
1643468680337,22865.7646313,82
1643468680337,22865.7646342,82
1643468680337,22865.764637,58
1643468680337,22866.219436,44
1643468680337,22866.2194504,56
1643468680337,22866.2194541,58
1643468680337,22866.2194593,61
1643468680337,22866.2194624,68
1643468680369,22866.2194674,32
1643468680369,22866.2194705,-7
1643468680369,22866.2194753,-2
1643468680369,22866.2194784,7
1643468680369,22866.2194841,2
1643468680369,22866.2194871,-9
1643468680369,22866.219492,-28
1643468680369,22866.219495,-2
1643468680369,22866.2194999,49
1643468680369,22866.219503,16
1643468680403,22866.2195078,-47
1643468680403,22866.2195112,-37
1643468680403,22866.219516,-2
1643468680403,22866.219519,16
1643468680403,22866.2195239,16
1643468680403,22866.2195269,-7
1643468680403,22866.2195319,-37
1643468680403,22866.2195349,-44
1643468680403,22866.2195398,-7
1643468680403,22866.2195429,42
1643468680434,22866.2195477,49
1643468680434,22866.2195508,42
1643468680434,22866.2195556,40
1643468680434,22866.2195833,25
1643468680434,22866.2195908,-4
1643468680434,22866.2195944,-14
1643468680434,22866.2195996,-40
1643468680434,22866.2196027,-101
1643468680434,22866.2196075,-68
1643468680434,22866.2196106,14
1643468680468,22866.2196154,-16
1643468680468,22866.2196187,-77
1643468680468,22866.2196235,-47
1643468680468,22866.2196265,54
1643468680468,22866.2196317,237
1643468680468,22866.2196349,490
1643468680468,22866.2196398,636
1643468680468,22866.2196429,532
1643468680468,22866.2196476,96
1643468680468,22866.2196507,-391
1643468680502,22866.2196556,-402
1643468680502,22866.2196588,-127
1643468680502,22866.2196637,-63
1643468680502,22866.2196668,-98
1643468680502,22866.2196716,-56
1643468680502,22866.2196747,-68
1643468680502,22866.21968,-117
1643468680502,22866.2196832,-94
1643468680502,22866.2196881,-47
1643468680502,22866.2196912,-51
1643468680535,22866.2196962,-49
1643468680535,22866.2196993,-7
1643468680535,22866.2197042,-4
1643468680535,22866.2197073,-35
1643468680923,22866.2197122,-37
1643468680923,22866.2197152,-14
1643468680923,22866.219718,-18
1643468680923,22866.2197209,-18
1643468680923,22866.2197237,32
1643468680923,22866.2197266,68
1643468680923,22866.2197295,51
1643468680923,22866.2197324,28
1643468680923,22866.2197352,-7
1643468680923,22866.2197524,-16
1643468680956,22866.2197608,54
1643468680956,22866.2197644,124
1643468680956,22866.2197675,101
1643468680956,22866.2197704,35
1643468680956,22866.8137375,4
1643468680956,22866.8137503,-11
1643468680956,22866.8137539,-14
1643468680956,22866.813757,18
1643468680956,22866.813762,42
1643468680956,22866.8137652,35
1643468680989,22866.8137682,18
1643468680989,22866.8137712,-16
1643468680989,22866.8137741,-44
1643468680989,22866.813777,-18
1643468680989,22866.81378,11
1643468680989,22866.813783,-11
1643468680989,22866.8137859,-47
1643468680989,22866.8137888,-40
1643468680989,22866.8137917,-18
1643468680989,22866.8137947,-35
1643468681023,22866.8137976,-51
1643468681023,22866.8138006,-51
1643468681023,22866.8138036,-44
1643468681023,22866.8138066,21
1643468681023,22866.8138096,68
1643468681023,22866.8138126,40
1643468681023,22866.8138157,9
1643468681023,22866.8138208,-14
1643468681023,22866.8138238,-14
1643468681023,22866.8138268,28
1643468681055,22866.8138298,40
1643468681055,22866.8138327,23
1643468681055,22866.8138356,30
1643468681055,22866.8138386,30
1643468681055,22866.8138415,11
1643468681055,22866.8138444,32
1643468681055,22866.8138472,51
1643468681055,22866.8138503,-16
1643468681055,22866.8138544,-75
1643468681055,22866.8138574,-28
1643468681089,22866.8138616,25
1643468681089,22866.8138646,2
1643468681089,22866.8138677,4
1643468681089,22866.8138706,134
1643468681089,22866.8138739,341
1643468681089,22866.8138788,515
1643468681089,22866.8138817,593
1643468681089,22866.8138847,527
1643468681089,22866.8138887,143
1643468681089,22866.8138918,-329
1643468681124,22866.8138966,-310
1643468681124,22866.8139014,-7
1643468681124,22866.8139062,14
1643468681124,22866.8139109,-113
1643468681124,22866.8139157,-84
1643468681124,22866.8139186,4
1643468681124,22866.8139215,28
1643468681124,22866.8139245,9
1643468681124,22866.8139275,-11
1643468681124,22866.8139305,-9
1643468681158,22866.8139334,-4
1643468681158,22866.8139375,2
1643468681158,22866.8139405,37
1643468681158,22866.8139445,58
1643468681457,22866.8139475,68
1643468681457,22866.8139503,103
1643468681457,22866.8139532,106
1643468681457,22866.8139559,70
1643468681457,22866.8139588,80
1643468681457,22866.8139616,120
1643468681457,22866.8139644,146
1643468681457,22866.8139671,150
1643468681457,22866.8139699,139
1643468681457,22866.8139727,124
1643468681492,22866.8139754,134
1643468681492,22866.8139783,167
1643468681492,22866.8139811,167
1643468681492,22867.3643541,164
1643468681492,22867.3643662,169
1643468681492,22867.3643697,160
1643468681492,22867.3643728,162
1643468681492,22867.3643756,167
1643468681492,22867.3643785,150
1643468681492,22867.3643813,129
1643468681525,22867.3643841,98
1643468681525,22867.364387,73
1643468681525,22867.3643897,73
1643468681525,22867.3643925,56
1643468681525,22867.3643952,30
1643468681525,22867.364398,44
1643468681525,22867.3644008,63
1643468681525,22867.3644036,56
1643468681525,22867.3644064,51
1643468681525,22867.3644092,58
1643468681558,22867.3644119,63
1643468681558,22867.3644147,44
1643468681558,22867.3644176,14
1643468681558,22867.3644204,23
1643468681558,22867.3644231,40
1643468681558,22867.3644259,56
1643468681558,22867.3644287,75
1643468681558,22867.3644315,44
1643468681558,22867.3644343,18
1643468681558,22867.364437,47
1643468681591,22867.3644398,28
1643468681591,22867.3644427,-11
1643468681591,22867.3644459,35
1643468681591,22867.3644487,75
1643468681591,22867.3644515,25
1643468681591,22867.3644543,4
1643468681591,22867.3644571,18
1643468681591,22867.3644599,7
1643468681591,22867.3644626,7
1643468681591,22867.3644655,0
1643468681624,22867.3644683,-51
1643468681624,22867.3644711,-91
1643468681624,22867.3644739,4
1643468681624,22867.3644767,296
1643468681624,22867.3644795,629
1643468681624,22867.3644823,782
1643468681624,22867.3644851,706
1643468681624,22867.3644879,294
1643468681624,22867.3644908,-320
1643468681624,22867.3644936,-438
1643468681659,22867.3644964,-120
1643468681659,22867.3644991,-80
1643468681659,22867.364502,-169
1643468681659,22867.3645047,-75
1643468681659,22867.3645075,-32
1643468681659,22867.3645103,-82
1643468681659,22867.3645134,-63
1643468681659,22867.3645162,-37
1643468681659,22867.364519,-61
1643468681659,22867.3645218,-65
1643468681692,22867.3645246,-32
1643468681692,22867.3645274,2
1643468681692,22867.3645301,14
1643468681692,22867.3645329,21
1643468682024,22867.3645357,40
1643468682024,22867.3645385,40
1643468682024,22867.3645412,25
1643468682024,22867.364544,44
1643468682024,22867.3645467,49
1643468682024,22867.3645495,32
1643468682024,22867.3645525,70
1643468682024,22867.3645553,98
1643468682024,22867.364558,73
1643468682024,22867.3645608,80
1643468682056,22867.3645636,89
1643468682056,22867.3645664,61
1643468682056,22867.9178866,73
1643468682056,22867.9179007,98
1643468682056,22867.9179046,75
1643468682056,22867.9179099,68
1643468682056,22867.917913,68
1643468682056,22867.9179161,11
1643468682056,22867.9179206,7
1643468682056,22867.9179236,25
1643468682093,22867.9179267,-30
1643468682093,22867.9179317,-30
1643468682093,22867.9179369,4
1643468682093,22867.9179417,-49
1643468682093,22867.9179463,-73
1643468682093,22867.9179513,4
1643468682093,22867.9179543,42
1643468682093,22867.9179574,14
1643468682093,22867.9179624,2
1643468682093,22867.9179655,2
1643468682122,22867.9179686,-9
1643468682122,22867.9179738,-11
1643468682122,22867.9179768,-11
1643468682122,22867.9179809,-18
1643468682122,22867.917984,21
1643468682122,22867.9179871,54
1643468682122,22867.9179902,-7
1643468682122,22867.9179943,-28
1643468682122,22867.9179973,25
1643468682122,22867.9180004,23
1643468682158,22867.9180035,-18
1643468682158,22867.9180065,-40
1643468682158,22867.9180096,-47
1643468682158,22867.9180127,9
1643468682158,22867.9180169,44
1643468682158,22867.91802,-56
1643468682158,22867.918023,-113
1643468682158,22867.9180261,-30
1643468682158,22867.9180312,9
1643468682158,22867.9180341,-77
1643468682189,22867.9180371,-106
1643468682189,22867.9180402,120
1643468682189,22867.9180451,445
1643468682189,22867.9180497,647
1643468682189,22867.9180546,704
1643468682189,22867.9180592,391
1643468682189,22867.9180633,-310
1643468682189,22867.9180686,-572
1643468682189,22867.9180724,-221
1643468682189,22867.9180765,-73
1643468682223,22867.9180795,-207
1643468682223,22867.9180825,-176
1643468682223,22867.918086,-56
1643468682223,22867.9180908,-40
1643468682223,22867.9180938,-49
1643468682223,22867.9180969,-56
1643468682223,22867.9180999,-94
1643468682223,22867.918103,-96
1643468682223,22867.918106,-73
1643468682223,22867.9181091,-73
1643468682258,22867.9181122,-47
1643468682258,22867.9181152,-23
1643468682258,22867.9181182,-35
1643468682258,22867.9181213,-18
1643468682763,22867.9181244,14
1643468682763,22867.9181274,2
1643468682763,22867.9181302,-28
1643468682763,22867.9181331,-18
1643468682763,22867.9181361,21
1643468682763,22867.918139,35
1643468682763,22867.9181419,35
