unixTime,lslTime,ECG
1643468036614,22221.7182655,-47
1643468036614,22221.7182686,-63
1643468036614,22221.7182717,-40
1643468036614,22221.7182747,-28
1643468036614,22221.7182777,-30
1643468036614,22221.7182808,-14
1643468036614,22221.7182838,0
1643468036614,22221.7182869,-7
1643468036614,22221.7182899,-2
1643468036614,22221.718293,21
1643468036646,22221.7182971,25
1643468036646,22221.7183002,21
1643468036646,22221.7183043,37
1643468036646,22221.7183073,56
1643468036646,22221.7183104,61
1643468036646,22221.7183134,70
1643468036646,22221.7183165,80
1643468036646,22221.7183195,80
1643468036646,22221.7183225,84
1643468036646,22221.7183255,94
1643468036684,22221.7183285,94
1643468036684,22221.7183315,94
1643468036684,22221.7183345,98
1643468036684,22221.7183375,98
1643468036684,22221.7183405,91
1643468036684,22221.7183435,84
1643468036684,22221.7183465,82
1643468036684,22221.7183495,80
1643468036684,22221.7183526,75
1643468036684,22221.7183556,63
1643468036717,22221.7183587,35
1643468036717,22221.7183619,21
1643468036717,22221.7183669,16
1643468036717,22221.7183698,11
1643468036717,22221.7183729,18
1643468036717,22221.718376,25
1643468036717,22221.7183791,18
1643468036717,22221.7183833,16
1643468036717,22221.7183864,35
1643468036717,22221.7183906,44
1643468036751,22222.4626613,35
1643468036751,22222.4626748,37
1643468036751,22222.4626785,49
1643468036751,22222.4626837,40
1643468036751,22222.4626868,25
1643468036751,22222.4626916,32
1643468036751,22222.4626947,35
1643468036751,22222.4626997,18
1643468036751,22222.4627028,4
1643468036751,22222.4627077,-2
1643468036783,22222.4627108,-2
1643468036783,22222.4627157,-11
1643468036783,22222.4627188,-21
1643468036783,22222.4627236,-7
1643468036979,22222.4627267,7
1643468036979,22222.4627297,2
1643468036979,22222.4627325,-7
1643468036979,22222.4627353,-2
1643468036979,22222.4627381,2
1643468036979,22222.462741,7
1643468036979,22222.4627439,7
1643468036979,22222.4627467,4
1643468036979,22222.4627495,7
1643468036979,22222.4627523,18
1643468037016,22222.4627551,35
1643468037016,22222.4627579,47
1643468037016,22222.4627607,49
1643468037016,22222.4627635,40
1643468037016,22222.4627666,23
1643468037016,22222.4627694,16
1643468037016,22222.4627722,11
1643468037016,22222.462775,4
1643468037016,22222.4627779,7
1643468037016,22222.4627807,18
1643468037047,22222.4627842,14
1643468037047,22222.4627872,4
1643468037047,22222.4627901,2
1643468037047,22222.4627931,70
1643468037047,22222.4627967,275
1643468037047,22222.4627997,570
1643468037047,22222.4628049,758
1643468037047,22222.4628088,669
1643468037047,22222.4628129,219
1643468037047,22222.4628169,-313
1643468037079,22222.462822,-379
1643468037079,22222.4628252,-94
1643468037079,22222.4628304,-9
1643468037079,22222.4628334,-73
1643468037079,22222.4628364,-44
1643468037079,22222.4628417,-9
1643468037079,22222.4628449,-21
1643468037079,22222.4628501,-18
1643468037079,22222.4628532,-4
1643468037079,22222.462857,2
1643468037113,22222.46286,14
1643468037113,22222.4628631,14
1643468037113,22222.4628681,4
1643468037113,22222.4628712,11
1643468037113,22222.4628764,28
1643468037113,22222.4628795,28
1643468037113,22222.4628845,30
1643468037113,22222.4628875,49
1643468037113,22222.4629199,61
1643468037113,22222.4629267,56
1643468037157,22222.462932,63
1643468037157,22222.4629351,75
1643468037157,22222.4629405,80
1643468037157,22222.4629436,84
1643468037157,22222.4629485,96
1643468037157,22222.4629516,96
1643468037157,22222.4629546,87
1643468037157,22222.4629597,84
1643468037157,22222.4629628,82
1643468037157,22222.8693876,80
1643468037180,22222.8694006,80
1643468037180,22222.8694043,68
1643468037180,22222.8694075,49
1643468037180,22222.8694109,49
1643468037180,22222.8694139,51
1643468037180,22222.8694168,30
1643468037180,22222.8694198,0
1643468037180,22222.8694242,-9
1643468037180,22222.8694271,-7
1643468037180,22222.8694302,-11
1643468037212,22222.8694331,-21
1643468037212,22222.8694361,-18
1643468037212,22222.869439,-11
1643468037212,22222.8694434,-16
1643468037546,22222.8694465,-14
1643468037546,22222.8694494,-2
1643468037546,22222.8694521,-4
1643468037546,22222.8694549,-18
1643468037546,22222.8694579,-32
1643468037546,22222.8694607,-44
1643468037546,22222.8694634,-51
1643468037546,22222.8694662,-49
1643468037546,22222.8694689,-47
1643468037546,22222.8694716,-44
1643468037579,22222.8694744,-47
1643468037579,22222.8694771,-70
1643468037579,22222.8694799,-91
1643468037579,22222.8694826,-80
1643468037579,22222.8694854,-65
1643468037579,22222.8694881,-70
1643468037579,22222.8694908,-73
1643468037579,22222.8694937,-70
1643468037579,22222.8694964,-73
1643468037579,22222.8694991,-80
1643468037613,22222.8695018,-70
1643468037613,22222.8695046,-44
1643468037613,22222.8695073,-21
1643468037613,22222.86951,-2
1643468037613,22222.8695162,4
1643468037613,22222.8695192,2
1643468037613,22222.869522,-4
1643468037613,22222.8695247,-25
1643468037613,22222.8695275,-51
1643468037613,22222.8695303,-51
1643468037647,22222.8695332,-35
1643468037647,22222.8695359,-40
1643468037647,22222.8695387,-49
1643468037647,22222.8695414,-35
1643468037647,22222.8695443,-28
1643468037647,22222.869547,-18
1643468037647,22222.8695499,103
1643468037647,22222.8695526,351
1643468037647,22222.8695554,558
1643468037647,22222.8695583,581
1643468037679,22222.869561,322
1643468037679,22222.8695637,-167
1643468037679,22222.8695665,-428
1643468037679,22222.8695693,-228
1643468037679,22222.869572,-37
1643468037679,22222.8695748,-84
1643468037679,22222.8695776,-98
1643468037679,22222.8695803,-40
1643468037679,22222.869583,-32
1643468037679,22222.8695857,-44
1643468037713,22222.8695885,-28
1643468037713,22222.8695912,-14
1643468037713,22222.8695939,-21
1643468037713,22222.8695967,-28
1643468037713,22222.8695995,-18
1643468037713,22222.8696022,-7
1643468037713,22222.869605,4
1643468037713,22222.8696078,9
1643468037713,22223.4630293,9
1643468037713,22223.4630508,14
1643468037746,22223.463056,21
1643468037746,22223.4630592,28
1643468037746,22223.4630631,30
1643468037746,22223.4630661,35
1643468037746,22223.4630691,49
1643468037746,22223.4630721,65
1643468037746,22223.463075,68
1643468037746,22223.463078,61
1643468037746,22223.463082,61
1643468037746,22223.463085,51
1643468037779,22223.463088,25
1643468037779,22223.4630919,14
1643468037779,22223.4630949,16
1643468037779,22223.463098,14
1643468038212,22223.463101,16
1643468038212,22223.463104,18
1643468038212,22223.4631069,-2
1643468038212,22223.4631098,-25
1643468038212,22223.4631126,-28
1643468038212,22223.4631154,-30
1643468038212,22223.4631182,-47
1643468038212,22223.463121,-44
1643468038212,22223.4631239,-37
1643468038212,22223.4631267,-47
1643468038248,22223.4631295,-37
1643468038248,22223.4631322,-16
1643468038248,22223.463135,-16
1643468038248,22223.4631378,-14
1643468038248,22223.4631406,-2
1643468038248,22223.4631435,-2
1643468038248,22223.4631464,0
1643468038248,22223.4631493,9
1643468038248,22223.4631523,9
1643468038248,22223.4631552,9
1643468038279,22223.4631583,7
1643468038279,22223.4631614,-7
1643468038279,22223.4631643,-11
1643468038279,22223.4631675,0
1643468038279,22223.4631714,4
1643468038279,22223.4631743,-7
1643468038279,22223.4631782,-14
1643468038279,22223.4631812,-9
1643468038279,22223.4631841,-2
1643468038279,22223.4631873,4
1643468038301,22223.4631911,23
1643468038301,22223.463194,51
1643468038301,22223.4631971,58
1643468038301,22223.4632001,47
1643468038301,22223.4632031,37
1643468038301,22223.4632062,21
1643468038301,22223.4632346,0
1643468038301,22223.4632539,0
1643468038301,22223.4632609,7
1643468038301,22223.4632645,7
1643468038324,22223.4632692,0
1643468038324,22223.4632724,2
1643468038324,22223.4632765,9
1643468038324,22223.4632795,11
1643468038324,22223.4632846,68
1643468038324,22223.4632893,249
1643468038324,22223.4632932,504
1643468038324,22223.4632963,645
1643468038324,22223.4633012,501
1643468038324,22223.4633058,65
1643468038346,22223.4633106,-336
1643468038346,22223.4633152,-313
1643468038346,22223.4633197,-82
1643468038346,22223.4633226,-35
1643468038346,22223.4633256,-68
1643468038346,22223.463329,-28
1643468038346,22223.4633338,-7
1643468038346,22224.11413,-23
1643468038346,22224.1141439,-9
1643468038346,22224.1141481,11
1643468038370,22224.1141533,4
1643468038370,22224.1141565,0
1643468038370,22224.1141617,9
1643468038370,22224.1141659,18
1643468038370,22224.114169,25
1643468038370,22224.1141719,32
1643468038370,22224.114175,37
1643468038370,22224.1141781,25
1643468038370,22224.1141833,0
1643468038370,22224.1141864,2
1643468038391,22224.1141915,30
1643468038391,22224.1141949,42
1643468038391,22224.1141997,42
1643468038391,22224.1142027,56
1643468038702,22224.1142077,63
1643468038702,22224.1142107,65
1643468038702,22224.1142136,77
1643468038702,22224.1142165,87
1643468038702,22224.1142198,84
1643468038702,22224.1142231,82
1643468038702,22224.1142259,87
1643468038702,22224.1142288,87
1643468038702,22224.1142316,87
1643468038702,22224.1142345,91
1643468038735,22224.1142373,82
1643468038735,22224.1142401,61
1643468038735,22224.114243,56
1643468038735,22224.1142459,44
1643468038735,22224.1142487,23
1643468038735,22224.1142515,16
1643468038735,22224.1142544,18
1643468038735,22224.1142572,23
1643468038735,22224.1142601,23
1643468038735,22224.1142628,23
1643468038770,22224.1142657,25
1643468038770,22224.1142685,28
1643468038770,22224.1142714,30
1643468038770,22224.1142763,37
1643468038770,22224.1142793,42
1643468038770,22224.1142823,32
1643468038770,22224.1142876,28
1643468038770,22224.1142908,40
1643468038770,22224.1142957,42
1643468038770,22224.1142987,32
1643468038802,22224.1143018,28
1643468038802,22224.1143067,25
1643468038802,22224.1143098,25
1643468038802,22224.114313,28
1643468038802,22224.114318,18
1643468038802,22224.1143212,7
1643468038802,22224.1143262,28
1643468038802,22224.1143294,58
1643468038802,22224.1143347,68
1643468038802,22224.1143377,61
1643468038835,22224.1143429,51
1643468038835,22224.1143496,42
1643468038835,22224.1143823,28
1643468038835,22224.1143906,11
1643468038835,22224.1143942,4
1643468038835,22224.1143994,7
1643468038835,22224.1144032,7
1643468038835,22224.1144081,4
1643468038835,22224.1144112,4
1643468038835,22224.114416,4
1643468038869,22224.1144191,30
1643468038869,22224.1144238,167
1643468038869,22224.114427,431
1643468038869,22224.1144317,678
1643468038869,22224.1144347,704
1643468038869,22224.1144396,365
1643468038869,22224.6143021,-193
1643468038869,22224.6143157,-440
1643468038869,22224.6143192,-223
1643468038869,22224.6143223,-42
1643468038903,22224.6143253,-70
1643468038903,22224.6143281,-77
1643468038903,22224.614331,-47
1643468038903,22224.6143339,-44
1643468038903,22224.6143367,-37
1643468038903,22224.6143399,-23
1643468038903,22224.6143427,-21
1643468038903,22224.6143622,-18
1643468038903,22224.6143655,-18
1643468038903,22224.6143685,-21
1643468038936,22224.6143736,-2
1643468038936,22224.6144286,4
1643468038936,22224.6144349,-23
1643468038936,22224.6144381,-30
1643468039201,22224.6144432,-14
1643468039201,22224.6144463,-7
1643468039201,22224.6144493,4
1643468039201,22224.6144522,11
1643468039201,22224.6144552,9
1643468039201,22224.6144581,21
1643468039201,22224.614461,32
1643468039201,22224.6144639,35
1643468039201,22224.6144667,44
1643468039201,22224.61451,49
1643468039235,22224.6145165,37
1643468039235,22224.6145197,32
1643468039235,22224.614525,35
1643468039235,22224.6145281,30
1643468039235,22224.6145333,28
1643468039235,22224.6145365,37
1643468039235,22224.6145419,40
1643468039235,22224.6145452,21
1643468039235,22224.6145502,7
1643468039235,22224.6145534,9
1643468039269,22224.614561,7
1643468039269,22224.6145643,-2
1643468039269,22224.6145798,-7
1643468039269,22224.6146141,-7
1643468039269,22224.6146189,-9
1643468039269,22224.6146219,-2
1643468039269,22224.6146249,18
1643468039269,22224.6146278,25
1643468039269,22224.6146307,25
1643468039269,22224.6146336,30
1643468039301,22224.6146366,35
1643468039301,22224.6146394,30
1643468039301,22224.6146423,21
1643468039301,22224.6146452,16
1643468039301,22224.6146481,21
1643468039301,22224.614651,23
1643468039301,22224.6146539,9
1643468039301,22224.6146569,4
1643468039301,22224.6146598,4
1643468039301,22224.6146627,-2
1643468039335,22224.6146656,-2
1643468039335,22224.6146685,30
1643468039335,22224.6146714,54
1643468039335,22224.6146744,42
1643468039335,22224.6147128,21
1643468039335,22224.6147297,11
1643468039335,22224.6147341,4
1643468039335,22224.6147376,-7
1643468039335,22224.6147406,-18
1643468039335,22224.6147435,-21
1643468039370,22224.6147464,-14
1643468039370,22224.6147493,-11
1643468039370,22224.6147522,-11
1643468039370,22224.614755,-14
1643468039370,22224.6147579,-7
1643468039370,22225.1164191,77
1643468039370,22225.116433,296
1643468039370,22225.1164386,539
1643468039370,22225.1164437,621
1643468039370,22225.1164472,409
1643468039404,22225.1164504,-82
1643468039404,22225.1164553,-442
1643468039404,22225.1164581,-336
1643468039404,22225.1164612,-127
1643468039404,22225.116466,-127
1643468039404,22225.1164707,-143
1643468039404,22225.1164756,-94
1643468039404,22225.1164801,-89
1643468039404,22225.116484,-103
1643468039404,22225.116487,-94
1643468039435,22225.1164921,-89
1643468039435,22225.1164965,-96
1643468039435,22225.1165013,-84
1643468039435,22225.1165043,-68
1643468039770,22225.1165073,-68
1643468039770,22225.1165105,-68
1643468039770,22225.1165132,-58
1643468039770,22225.116516,-44
1643468039770,22225.1165189,-42
1643468039770,22225.1165217,-37
1643468039770,22225.1165245,-18
1643468039770,22225.1165273,-11
1643468039770,22225.1165301,-18
1643468039770,22225.1165329,-4
1643468039790,22225.1165357,11
1643468039790,22225.1165385,11
1643468039790,22225.1165412,18
1643468039790,22225.116544,28
1643468039790,22225.1165467,16
1643468039790,22225.1165499,14
1643468039790,22225.1165529,28
1643468039790,22225.1165588,23
1643468039790,22225.1165639,21
1643468039790,22225.1165668,32
1643468039813,22225.1165695,21
1643468039813,22225.1165734,2
1643468039813,22225.1165765,0
1643468039813,22225.116582,0
1643468039813,22225.1165851,-11
1643468039813,22225.11659,-21
1643468039813,22225.1165933,-21
1643468039813,22225.1165972,-23
1643468039813,22225.1166001,-28
1643468039813,22225.1166029,-21
1643468039836,22225.1166056,-4
1643468039836,22225.1166085,2
1643468039836,22225.1166116,-4
1643468039836,22225.1166143,-2
1643468039836,22225.1166171,4
1643468039836,22225.1166198,-4
1643468039836,22225.1166226,-14
1643468039836,22225.1166254,-7
1643468039836,22225.1166282,-2
1643468039836,22225.116631,-9
1643468039858,22225.1166341,-14
1643468039858,22225.1166369,-11
1643468039858,22225.1166399,-7
1643468039858,22225.116643,-2
1643468039858,22225.116646,0
1643468039858,22225.1166488,-11
1643468039858,22225.1166518,-7
1643468039858,22225.1166547,28
1643468039858,22225.1166579,51
1643468039858,22225.116663,47
1643468039879,22225.1166661,35
1643468039879,22225.1166711,30
1643468039879,22225.1166741,16
1643468039879,22225.1166769,-4
1643468039879,22225.6691196,-21
1643468039879,22225.6691332,-23
1643468039879,22225.669137,-14
1643468039879,22225.6691425,-2
1643468039879,22225.6691458,0
1643468039879,22225.669151,-7
1643468039903,22225.6691542,4
1643468039903,22225.6691591,96
1643468039903,22225.6691623,308
1643468039903,22225.6691672,530
1643468039903,22225.6691703,577
1643468039903,22225.6691753,313
1643468039903,22225.6691795,-179
1643468039903,22225.6691826,-438
1643468039903,22225.6691858,-247
1643468039903,22225.6691912,-65
1643468039935,22225.6691943,-101
1643468039935,22225.6691973,-98
1643468039935,22225.6692023,-51
1643468039935,22225.6692053,-73
1643468040302,22225.6692104,-89
1643468040302,22225.6692132,-61
1643468040302,22225.669216,-47
1643468040302,22225.6692188,-47
1643468040302,22225.6692217,-37
1643468040302,22225.6692245,-28
1643468040302,22225.6692273,-28
1643468040302,22225.6692301,-16
1643468040302,22225.6692329,-11
1643468040302,22225.6692357,-7
1643468040337,22225.6692385,7
1643468040337,22225.6692415,18
1643468040337,22225.6692443,23
1643468040337,22225.6692471,25
1643468040337,22225.6692499,35
1643468040337,22225.6692527,49
1643468040337,22225.6692555,56
1643468040337,22225.6692582,61
1643468040337,22225.669261,68
1643468040337,22225.6692639,68
1643468040370,22225.6692667,61
1643468040370,22225.6692694,63
1643468040370,22225.6692722,70
1643468040370,22225.6692749,70
1643468040370,22225.6692777,68
1643468040370,22225.6692805,68
1643468040370,22225.6692833,58
1643468040370,22225.669286,40
1643468040370,22225.6692888,23
1643468040370,22225.6692916,18
1643468040402,22225.6692944,7
1643468040402,22225.6692974,-11
1643468040402,22225.6693002,-18
1643468040402,22225.669303,-16
1643468040402,22225.6693058,-4
1643468040402,22225.6693086,4
1643468040402,22225.6693114,4
1643468040402,22225.6693142,4
1643468040402,22225.669317,11
1643468040402,22225.6693199,18
1643468040436,22225.6693228,32
1643468040436,22225.6693256,44
1643468040436,22225.6693285,37
1643468040436,22225.6693312,25
1643468040436,22225.669334,23
1643468040436,22225.6693368,28
1643468040436,22225.6693396,30
1643468040436,22225.6693425,25
1643468040436,22225.6693454,28
1643468040436,22225.6693481,25
1643468040472,22225.6693508,9
1643468040472,22225.6693536,7
1643468040472,22225.6693564,28
1643468040472,22226.2195946,47
1643468040472,22226.2196086,75
1643468040472,22226.2196132,89
1643468040472,22226.2196189,70
1643468040472,22226.2196218,56
1643468040472,22226.2196249,42
1643468040472,22226.2196279,30
1643468040502,22226.219631,37
1643468040502,22226.2196353,40
1643468040502,22226.2196384,40
1643468040502,22226.2196413,40
1643468040502,22226.2196444,11
1643468040502,22226.2196473,-18
1643468040502,22226.2196527,-23
1643468040502,22226.2196576,14
1643468040502,22226.2196626,171
1643468040502,22226.2196656,433
1643468040536,22226.2196706,598
1643468040536,22226.2196752,515
1643468040536,22226.2196802,150
1643468040536,22226.2196834,-318
1643468040868,22226.2196881,-438
1643468040868,22226.2196919,-193
1643468040868,22226.2196946,-63
1643468040868,22226.2196974,-124
1643468040868,22226.2197002,-120
1643468040868,22226.219703,-65
1643468040868,22226.2197057,-63
1643468040868,22226.2197084,-70
1643468040868,22226.2197112,-54
1643468040868,22226.2197139,-47
1643468040902,22226.2197166,-54
1643468040902,22226.2197194,-44
1643468040902,22226.2197221,-18
1643468040902,22226.2197248,-2
1643468040902,22226.2197276,0
1643468040902,22226.2197304,4
1643468040902,22226.2197332,9
1643468040902,22226.2197359,2
1643468040902,22226.2197386,9
1643468040902,22226.2197413,18
1643468040935,22226.219744,0
1643468040935,22226.2197468,-4
1643468040935,22226.2197496,18
1643468040935,22226.2197524,32
1643468040935,22226.2197551,40
1643468040935,22226.219758,47
1643468040935,22226.2197608,35
1643468040935,22226.2197645,23
1643468040935,22226.2197676,21
1643468040935,22226.2197705,16
1643468040968,22226.2197737,23
1643468040968,22226.2197793,25
1643468040968,22226.2197824,7
1643468040968,22226.2197873,4
1643468040968,22226.2197903,16
1643468040968,22226.2197946,14
1643468040968,22226.2197985,-7
1643468040968,22226.2198016,-25
1643468040968,22226.2198064,-35
1643468040968,22226.2198093,-32
1643468041002,22226.2198123,-28
1643468041002,22226.2198166,-28
1643468041002,22226.2198196,-25
1643468041002,22226.2198247,-14
1643468041002,22226.2198277,-7
1643468041002,22226.2198306,-4
1643468041002,22226.2198335,-2
1643468041002,22226.2198365,2
1643468041002,22226.2198395,9
1643468041002,22226.2198438,25
1643468041036,22226.2198477,35
1643468041036,22226.2198508,16
1643468041036,22226.7679627,4
1643468041036,22226.767975,14
1643468041036,22226.7679787,0
1643468041036,22226.7679839,-16
1643468041036,22226.767987,-4
1643468041036,22226.7679902,0
1643468041036,22226.7679945,0
1643468041036,22226.7679976,16
1643468041057,22226.7680025,28
1643468041057,22226.7680071,28
1643468041057,22226.7680119,23
1643468041057,22226.7680161,28
1643468041057,22226.7680209,21
1643468041057,22226.7680254,-9
1643468041057,22226.7680302,-30
1643468041057,22226.7680331,-18
1643468041057,22226.7680362,-9
1643468041057,22226.7680411,-11
1643468041081,22226.7680458,-11
1643468041081,22226.7680506,-9
1643468041081,22226.7680549,0
1643468041081,22226.7680596,2
1643468041502,22226.768064,25
1643468041502,22226.7680669,134
1643468041502,22226.7680698,341
1643468041502,22226.7680726,551
1643468041502,22226.7680754,612
1643468041502,22226.7680783,381
1643468041502,22226.7680811,-96
1643468041502,22226.7680839,-374
1643468041502,22226.7680868,-200
1643468041502,22226.7680896,-9
1643468041535,22226.7680924,-44
1643468041535,22226.7680952,-68
1643468041535,22226.7680981,-14
1643468041535,22226.768101,2
1643468041535,22226.7681038,-2
1643468041535,22226.7681066,7
1643468041535,22226.7681097,16
1643468041535,22226.7681127,30
1643468041535,22226.7681179,32
1643468041535,22226.7681208,30
1643468041568,22226.7681239,51
1643468041568,22226.7681269,73
1643468041568,22226.7681309,84
1643468041568,22226.768134,89
1643468041568,22226.7681386,84
1643468041568,22226.7681415,94
1643468041568,22226.7681446,106
1643468041568,22226.7681518,103
1643468041568,22226.7681552,98
1643468041568,22226.7681606,106
1643468041601,22226.7681638,129
1643468041601,22226.7681686,124
1643468041601,22226.7682021,101
1643468041601,22226.7682163,115
1643468041601,22226.7682225,131
1643468041601,22226.7682259,124
1643468041601,22226.7682311,134
1643468041601,22226.7682341,150
1643468041601,22226.7682373,134
1643468041601,22226.7682421,117
1643468041634,22226.768245,124
1643468041634,22226.7682485,122
1643468041634,22226.7682534,103
1643468041634,22226.7682588,94
1643468041634,22226.7682637,87
1643468041634,22226.768269,42
1643468041634,22226.7682738,4
1643468041634,22226.768277,54
1643468041634,22226.7682819,117
1643468041634,22226.7682849,101
1643468041667,22226.7682892,75
1643468041667,22227.4140677,84
1643468041667,22227.4140812,80
1643468041667,22227.4140851,63
1643468041667,22227.4140906,70
1643468041667,22227.4140939,80
1643468041667,22227.4140987,75
1643468041667,22227.4141017,73
1643468041667,22227.4141067,65
1643468041667,22227.4141102,44
1643468041702,22227.414115,30
1643468041702,22227.4141181,37
1643468041702,22227.4141229,47
1643468041702,22227.414126,47
1643468041702,22227.414129,54
1643468041702,22227.414132,44
1643468041702,22227.414137,30
1643468041702,22227.4141401,32
1643468041702,22227.4141449,40
1643468041702,22227.414148,44
1643468041736,22227.4141528,75
1643468041736,22227.4141558,96
1643468041736,22227.4141608,73
1643468041736,22227.4141637,51
1643468042002,22227.4141667,54
1643468042002,22227.4141696,40
1643468042002,22227.4141724,7
1643468042002,22227.4141753,0
1643468042002,22227.4141781,11
1643468042002,22227.4141808,16
1643468042002,22227.4141836,18
1643468042002,22227.4141863,18
1643468042002,22227.414189,28
1643468042002,22227.4141918,136
1643468042034,22227.4141947,402
1643468042034,22227.4141974,685
1643468042034,22227.4142003,777
1643468042034,22227.4142031,539
1643468042034,22227.4142059,-14
1643468042034,22227.4142087,-405
1643468042034,22227.414216,-254
1643468042034,22227.4142191,-18
1643468042034,22227.4142219,-44
1643468042034,22227.4142246,-73
1643468042068,22227.4142276,-28
1643468042068,22227.4142307,-23
1643468042068,22227.4142337,-23
1643468042068,22227.4142368,-11
1643468042068,22227.4142398,-4
1643468042068,22227.4142428,23
1643468042068,22227.4142459,37
1643468042068,22227.4142524,18
1643468042068,22227.4142555,11
1643468042068,22227.4142586,21
1643468042101,22227.4142637,30
1643468042101,22227.4142668,28
1643468042101,22227.4142714,32
1643468042101,22227.4142744,42
1643468042101,22227.4142791,49
1643468042101,22227.4142822,56
1643468042101,22227.414287,65
1643468042101,22227.41429,73
1643468042101,22227.4142948,63
1643468042101,22227.414298,44
1643468042135,22227.4143029,58
1643468042135,22227.4143059,103
1643468042135,22227.414309,101
1643468042135,22227.4143118,75
1643468042135,22227.414315,75
1643468042135,22227.4143177,70
1643468042135,22227.4143205,56
1643468042135,22227.4143233,51
1643468042135,22227.4143261,47
1643468042135,22227.4143288,28
1643468042169,22227.9174794,4
1643468042169,22227.9174932,-9
1643468042169,22227.9174968,-16
1643468042169,22227.9174999,-21
1643468042169,22227.9175029,-21
1643468042169,22227.9175085,-21
1643468042169,22227.9175116,-35
1643468042169,22227.9175166,-49
1643468042169,22227.9175196,-42
1643468042169,22227.9175247,-14
1643468042215,22227.9175276,2
1643468042215,22227.9175306,-2
1643468042215,22227.9175336,-4
1643468042215,22227.9175366,-16
1643468042215,22227.9175395,-30
1643468042215,22227.9175424,-32
1643468042215,22227.9175453,-40
1643468042215,22227.9175482,-35
1643468042215,22227.9175511,-9
1643468042215,22227.917554,-9
1643468042237,22227.9175569,-35
1643468042237,22227.9175598,-35
1643468042237,22227.9175627,-25
1643468042237,22227.9175657,-32
1643468042856,22227.9175703,-40
1643468042856,22227.9175732,-49
1643468042856,22227.9175759,-32
1643468042856,22227.9175787,25
1643468042856,22227.9175815,44
1643468042856,22227.9175843,18
1643468042856,22227.9175871,9
1643468042856,22227.9175899,7
1643468042856,22227.9175926,-23
1643468042856,22227.9175954,-54
1643468042879,22227.9175982,-56
1643468042879,22227.917601,-42
1643468042879,22227.9176038,-16
1643468042879,22227.9176065,-11
1643468042879,22227.9176092,-28
1643468042879,22227.917612,-30
1643468042879,22227.9176148,21
1643468042879,22227.9176176,188
1643468042879,22227.9176205,445
1643468042879,22227.9176233,614
1643468042901,22227.917626,541
1643468042901,22227.9176289,153
1643468042901,22227.9176319,-322
1643468042901,22227.9176348,-395
1643468042901,22227.9176377,-134
1643468042901,22227.9176407,-40
1643468042901,22227.9176437,-101
1643468042901,22227.9176477,-84
1643468042901,22227.9176507,-54
1643468042901,22227.9176537,-77
1643468042924,22227.9176566,-70
1643468042924,22227.9176596,-25
1643468042924,22227.9176625,-9
1643468042924,22227.9176655,-28
1643468042924,22227.9176686,-28
1643468042924,22227.9176729,-9
1643468042924,22227.9176759,-18
1643468042924,22227.91768,-37
1643468042924,22227.917683,-21
1643468042924,22227.9176859,4
1643468042945,22227.9176889,2
1643468042945,22227.9176919,-2
1643468042945,22227.917695,11
1643468042945,22227.9176987,16
1643468042945,22227.9177018,16
1643468042945,22227.9177047,25
1643468042945,22227.9177075,32
1643468042945,22227.9177105,23
1643468042945,22227.9177133,30
1643468042945,22228.7646865,42
1643468042967,22228.7647011,49
1643468042967,22228.7647046,54
1643468042967,22228.7647077,40
1643468042967,22228.7647108,21
1643468042967,22228.7647153,21
1643468042967,22228.7647185,21
1643468042967,22228.7647275,9
1643468042967,22228.7647306,-9
1643468042967,22228.7647337,-25
1643468042967,22228.7647367,-40
1643468042994,22228.7647395,-68
1643468042994,22228.7647423,-98
1643468042994,22228.7647452,-115
1643468042994,22228.7647482,-110
1643468042994,22228.7647525,-101
1643468042994,22228.7647553,-96
1643468042994,22228.7647581,-87
1643468042994,22228.7647609,-73
1643468042994,22228.7647637,-75
1643468042994,22228.7647669,-87
1643468043014,22228.7647722,-82
1643468043014,22228.7647752,-61
1643468043014,22228.7647807,-49
1643468043014,22228.7647838,-37
1643468043101,22228.7647889,-21
1643468043101,22228.7647918,-30
1643468043101,22228.7647948,-51
1643468043101,22228.7647976,-51
1643468043101,22228.7648007,-47
1643468043101,22228.7648035,-47
1643468043101,22228.7648065,-37
1643468043101,22228.7648093,-28
1643468043101,22228.7648123,-35
1643468043101,22228.7648154,-30
1643468043125,22228.7648182,-7
1643468043125,22228.764821,4
1643468043125,22228.7648239,-4
1643468043125,22228.7648266,7
1643468043125,22228.7648294,30
1643468043125,22228.7648322,7
1643468043125,22228.7648351,-23
1643468043125,22228.7648379,-23
1643468043125,22228.7648407,-18
1643468043125,22228.7648875,-25
1643468043147,22228.7649029,-28
1643468043147,22228.764907,-28
1643468043147,22228.7649102,-14
1643468043147,22228.7649137,11
1643468043147,22228.7649166,101
1643468043147,22228.7649195,306
1643468043147,22228.7649223,511
1643468043147,22228.7649251,546
1643468043147,22228.7649279,332
1643468043147,22228.7649308,-96
1643468043168,22228.7649336,-367
1643468043168,22228.7649367,-221
1643468043168,22228.7649395,-35
1643468043168,22228.7649423,-54
1643468043168,22228.7649452,-73
1643468043168,22228.764948,-28
1643468043168,22228.7649507,-23
1643468043168,22228.7649536,-35
1643468043168,22228.7649564,-21
1643468043168,22228.7649592,-7
1643468043194,22228.764962,-11
1643468043194,22228.764965,-7
1643468043194,22228.7649678,11
1643468043194,22228.7649707,21
1643468043194,22228.7649736,16
1643468043194,22228.7649765,14
1643468043194,22228.7649793,11
1643468043194,22228.7649822,18
1643468043194,22229.0196248,25
1643468043194,22229.0196749,35
1643468043214,22229.0196912,42
1643468043214,22229.0196983,49
1643468043214,22229.0197016,56
1643468043214,22229.0197061,58
1643468043214,22229.0197105,58
1643468043214,22229.0197135,68
1643468043214,22229.0197166,80
1643468043214,22229.0197196,77
1643468043214,22229.0197228,63
1643468043214,22229.0197258,58
1643468043234,22229.019729,68
1643468043234,22229.0197341,80
1643468043234,22229.019737,70
1643468043234,22229.01974,54
1643468043234,22229.019743,54
1643468043234,22229.019746,56
1643468043234,22229.019749,54
1643468043234,22229.019752,42
1643468043234,22229.0197551,30
1643468043234,22229.0197581,32
1643468043258,22229.0197611,40
1643468043258,22229.019764,14
1643468043258,22229.0197671,-2
1643468043258,22229.0197711,18
1643468043757,22229.0197741,28
1643468043757,22229.0197771,30
1643468043757,22229.0197799,47
1643468043757,22229.0197828,51
1643468043757,22229.0197856,44
1643468043757,22229.0197884,58
1643468043757,22229.0197912,63
1643468043757,22229.019794,58
1643468043757,22229.0197969,56
1643468043757,22229.0197997,63
1643468043792,22229.0198025,75
1643468043792,22229.0198053,77
1643468043792,22229.0198081,70
1643468043792,22229.0198109,68
1643468043792,22229.0198137,65
1643468043792,22229.0198165,68
1643468043792,22229.0198193,68
1643468043792,22229.0198221,63
1643468043792,22229.0198249,84
1643468043792,22229.0198278,122
1643468043824,22229.0198306,122
1643468043824,22229.0198334,106
1643468043824,22229.0198362,106
1643468043824,22229.019839,98
1643468043824,22229.0198419,73
1643468043824,22229.0198446,61
1643468043824,22229.0198475,58
1643468043824,22229.0198504,54
1643468043824,22229.0198532,58
1643468043824,22229.019856,63
1643468043858,22229.0198589,51
1643468043858,22229.0198617,49
1643468043858,22229.0198645,136
1643468043858,22229.0198673,372
1643468043858,22229.0198703,654
1643468043858,22229.0198735,798
1643468043858,22229.0198775,659
1643468043858,22229.0198805,153
1643468043858,22229.0198837,-346
1643468043858,22229.0198868,-299
1643468043892,22229.0198904,-7
1643468043892,22229.019894,14
1643468043892,22229.0198989,-56
1643468043892,22229.0199019,-23
1643468043892,22229.0199051,4
1643468043892,22229.01991,0
1643468043892,22229.0199131,11
1643468043892,22229.6719694,18
1643468043892,22229.6719829,16
1643468043892,22229.6719882,23
1643468043926,22229.6719934,32
1643468043926,22229.6719971,32
1643468043926,22229.6720002,32
1643468043926,22229.6720042,37
1643468043926,22229.6720072,37
1643468043926,22229.6720102,32
1643468043926,22229.6720152,21
1643468043926,22229.672018,25
1643468043926,22229.672021,42
1643468043926,22229.672024,44
1643468043958,22229.672028,47
1643468043958,22229.672031,58
1643468043958,22229.6720361,61
1643468043958,22229.672039,51
1643468043958,22229.6720421,65
1643468043958,22229.6720461,101
1643468043958,22229.6720492,103
1643468043958,22229.6720522,70
1643468043958,22229.6720573,54
1643468043958,22229.6720601,61
1643468043990,22229.6720631,61
1643468043990,22229.6720661,42
1643468043990,22229.6720691,32
1643468043990,22229.6720721,42
1643468044357,22229.6720751,44
1643468044357,22229.672078,9
1643468044357,22229.6720809,-11
1643468044357,22229.6720837,-4
1643468044357,22229.6720865,-14
1643468044357,22229.6720893,-32
1643468044357,22229.672092,-4
1643468044357,22229.6720949,40
1643468044357,22229.6720977,32
1643468044357,22229.6721005,2
1643468044391,22229.6721033,11
1643468044391,22229.6721061,37
1643468044391,22229.6721088,40
1643468044391,22229.6721116,32
1643468044391,22229.6721143,32
1643468044391,22229.6721171,30
1643468044391,22229.6721201,32
1643468044391,22229.672123,30
1643468044391,22229.672126,25
1643468044391,22229.6721289,28
1643468044424,22229.6721318,18
1643468044424,22229.6721822,7
1643468044424,22229.6721897,14
1643468044424,22229.6721929,32
1643468044424,22229.6721959,49
1643468044424,22229.672199,61
1643468044424,22229.6722019,75
1643468044424,22229.6722049,73
1643468044424,22229.6722078,58
1643468044424,22229.6722107,30
1643468044457,22229.6722137,0
1643468044457,22229.6722167,21
1643468044457,22229.6722196,70
1643468044457,22229.6722226,49
1643468044457,22229.6722255,4
1643468044457,22229.6722285,9
1643468044457,22229.6722315,16
1643468044457,22229.6722344,7
1643468044457,22229.6722374,82
1643468044457,22229.6722417,301
1643468044478,22229.6722446,577
1643468044478,22229.6722476,744
1643468044478,22229.6722505,598
1643468044478,22229.6722535,51
1643468044478,22229.6722566,-428
1643468044478,22229.6722597,-320
1643468044478,22230.2623159,-42
1643468044478,22230.2623285,-63
1643468044478,22230.2623321,-108
1643468044478,22230.2623371,-40
1643468044501,22230.262342,-25
1643468044501,22230.2623468,-44
1643468044501,22230.2623513,-37
1643468044501,22230.2623561,-37
1643468044501,22230.2623607,-47
1643468044501,22230.2623656,-51
1643468044501,22230.2623699,-23
1643468044501,22230.2623747,23
1643468044501,22230.2623793,25
1643468044501,22230.262384,11
1643468044524,22230.2623885,9
1643468044524,22230.2623932,-11
1643468044524,22230.2624126,-23
1643468044524,22230.2624169,2
1643468044524,22230.2624197,28
1643468044524,22230.2624691,32
1643468044524,22230.2624802,23
1643468044524,22230.2624859,7
1643468044524,22230.2624892,2
1643468044524,22230.2624944,14
1643468044546,22230.2624975,7
1643468044546,22230.2625023,-9
1643468044546,22230.2625054,0
1643468044546,22230.2625103,11
1643468044813,22230.2625133,11
1643468044813,22230.2625162,23
1643468044813,22230.2625191,11
1643468044813,22230.262522,-35
1643468044813,22230.2625248,-44
1643468044813,22230.2625277,-16
1643468044813,22230.2625305,-32
1643468044813,22230.2625332,-61
1643468044813,22230.262536,-40
1643468044813,22230.2625388,-28
1643468044847,22230.2625415,-61
1643468044847,22230.2625443,-73
1643468044847,22230.2625471,-61
1643468044847,22230.2625499,-63
1643468044847,22230.2625527,-40
1643468044847,22230.2625555,0
1643468044847,22230.2625582,0
1643468044847,22230.2625611,-18
1643468044847,22230.2625639,-25
1643468044847,22230.2625667,-21
1643468044881,22230.2625694,-23
1643468044881,22230.2625722,-28
1643468044881,22230.2625751,0
1643468044881,22230.2625779,21
1643468044881,22230.2625807,-4
1643468044881,22230.2625835,-21
1643468044881,22230.2625863,-28
1643468044881,22230.2625891,-54
1643468044881,22230.2625919,-49
1643468044881,22230.2625982,-16
1643468044914,22230.2626024,0
1643468044914,22230.2626052,18
1643468044914,22230.2626081,30
1643468044914,22230.262611,0
1643468044914,22230.262614,-25
1643468044914,22230.2626168,-30
1643468044914,22230.2626196,-37
1643468044914,22230.2626225,-44
1643468044914,22230.2626252,-44
1643468044914,22230.262628,-32
1643468044946,22230.2626309,-14
1643468044946,22230.2626338,-11
1643468044946,22230.2626375,7
1643468044946,22230.2626433,134
1643468044946,22230.2626463,369
1643468044946,22230.7180881,577
1643468044946,22230.7181012,617
1643468044946,22230.7181049,327
1643468044946,22230.7181082,-212
1643468044946,22230.7181125,-433
1643468044979,22230.7181156,-179
1643468044979,22230.7181213,-16
1643468044979,22230.7181251,-91
1643468044979,22230.7181299,-94
1643468044979,22230.7181341,-49
1643468044979,22230.7181372,-65
1643468044979,22230.7181422,-61
1643468044979,22230.7181452,-65
1643468044979,22230.7181486,-87
1643468044979,22230.7181526,-63
1643468045012,22230.7181557,-51
1643468045012,22230.718159,-70
1643468045012,22230.7181641,-63
1643468045012,22230.7181693,-32
1643468045012,22230.7181744,-23
1643468045012,22230.7181774,-40
1643468045012,22230.7181805,-65
1643468045012,22230.718186,-44
1643468045012,22230.718189,-4
1643468045012,22230.718192,-11
1643468045045,22230.7181951,-23
1643468045045,22230.7182004,2
1643468045045,22230.7182035,11
1643468045045,22230.7182085,4
1643468045414,22230.7182117,18
1643468045414,22230.7182146,30
1643468045414,22230.7182174,21
1643468045414,22230.7182202,14
1643468045414,22230.7182231,7
1643468045414,22230.7182261,2
1643468045414,22230.7182289,14
1643468045414,22230.7182318,21
1643468045414,22230.7182349,11
1643468045414,22230.7182378,0
1643468045446,22230.7182407,-11
1643468045446,22230.7182435,-23
1643468045446,22230.7182464,-32
1643468045446,22230.7182492,-42
1643468045446,22230.7182521,-44
1643468045446,22230.7182549,-51
1643468045446,22230.718258,-54
1643468045446,22230.718261,-47
1643468045446,22230.718264,-47
1643468045446,22230.7182671,-54
1643468045479,22230.7182726,-49
1643468045479,22230.7182757,-37
1643468045479,22230.7182802,-23
1643468045479,22230.7182838,-11
1643468045479,22230.7182889,-18
1643468045479,22230.718292,-32
1643468045479,22230.7182971,-25
1643468045479,22230.7183002,-9
1643468045479,22230.7183052,-23
1643468045479,22230.7183099,-40
1643468045512,22230.7183148,-35
1643468045512,22230.7183177,-37
1643468045512,22230.7183206,-32
1643468045512,22230.7183235,4
1643468045512,22230.7183264,35
1643468045512,22230.7183293,30
1643468045512,22230.7183323,25
1643468045512,22230.7183351,16
1643468045512,22230.7183381,-18
1643468045512,22230.7183409,-30
1643468045547,22230.718344,-21
1643468045547,22230.7183471,-35
1643468045547,22230.7183524,-40
1643468045547,22230.7183556,-23
1643468045547,22231.3172204,-23
1643468045547,22231.317234,-18
1643468045547,22231.3172379,28
1643468045547,22231.3172432,174
1643468045547,22231.3172462,417
1643468045547,22231.3172494,591
1643468045579,22231.3172546,539
1643468045579,22231.3172577,181
1643468045579,22231.3172627,-296
1643468045579,22231.3172658,-400
1643468045579,22231.3172708,-164
1643468045579,22231.3172738,-87
1643468045579,22231.317279,-148
1643468045579,22231.317282,-122
1643468045579,22231.3172859,-89
1643468045579,22231.3172889,-98
1643468045613,22231.3172919,-84
1643468045613,22231.3172948,-70
1643468045613,22231.3172978,-82
1643468045613,22231.3173008,-70
1643468045613,22231.3173038,-63
1643468045613,22231.3173067,-73
1643468045613,22231.3173097,-73
1643468045613,22231.3173127,-54
1643468045613,22231.3173155,-21
1643468045613,22231.3173185,-14
1643468045646,22231.3173213,-32
1643468045646,22231.3173242,-25
1643468045646,22231.3173271,-2
1643468045646,22231.31733,-4
1643468045946,22231.3173329,-7
1643468045946,22231.3173358,0
1643468045946,22231.3173386,-4
1643468045946,22231.3173414,-7
1643468045946,22231.3173442,7
1643468045946,22231.317347,9
1643468045946,22231.3173497,9
1643468045946,22231.3173524,18
1643468045946,22231.3173555,16
1643468045946,22231.3173583,-2
1643468045968,22231.317361,-14
1643468045968,22231.3173638,-2
1643468045968,22231.3173665,-4
1643468045968,22231.3173692,-35
1643468045968,22231.3173719,-47
1643468045968,22231.3173747,-25
1643468045968,22231.3173776,-28
1643468045968,22231.3173805,-44
1643468045968,22231.3173834,-47
1643468045968,22231.3173863,-68
1643468045991,22231.3173892,-91
1643468045991,22231.3173922,-47
1643468045991,22231.3173951,0
1643468045991,22231.3173981,-9
1643468045991,22231.3174039,-16
1643468045991,22231.3174083,-11
1643468045991,22231.3174112,-21
1643468045991,22231.3174186,-25
1643468045991,22231.3174231,-2
1643468045991,22231.3174275,-2
1643468046013,22231.3174303,-32
1643468046013,22231.3174333,-37
1643468046013,22231.3174362,-32
1643468046013,22231.3174392,-35
1643468046013,22231.3174421,2
1643468046013,22231.3174452,40
1643468046013,22231.3174488,32
1643468046013,22231.3174518,28
1643468046013,22231.3174576,30
1643468046013,22231.3174606,0
1643468046035,22231.3174649,-32
1643468046035,22231.3174678,-30
1643468046035,22231.3174706,-2
1643468046035,22231.8640613,14
1643468046035,22231.8640751,9
1643468046035,22231.8640789,-4
1643468046035,22231.8640843,-4
1643468046035,22231.8640875,9
1643468046035,22231.8640926,68
1643468046035,22231.8640956,256
1643468046058,22231.8640988,527
1643468046058,22231.8641018,671
1643468046058,22231.8641048,534
1643468046058,22231.8641079,94
1643468046058,22231.864111,-346
1643468046058,22231.8641141,-332
1643468046058,22231.8641171,-77
1643468046058,22231.8641202,-32
1643468046058,22231.8641233,-96
1643468046058,22231.8641264,-75
1643468046079,22231.864132,-49
1643468046079,22231.8641351,-61
1643468046079,22231.8641406,-51
1643468046079,22231.8641453,-28
1643468046079,22231.8641485,-14
1643468046079,22231.8641515,-11
1643468046079,22231.8641553,-23
1643468046079,22231.8641584,-18
1643468046079,22231.8641634,4
1643468046079,22231.8641666,21
1643468046102,22231.8641697,30
1643468046102,22231.8641729,30
1643468046102,22231.8641781,37
1643468046102,22231.8641812,42
1643468046545,22231.8641862,25
1643468046545,22231.8641892,23
1643468046545,22231.8641921,49
1643468046545,22231.864195,68
1643468046545,22231.8641979,70
1643468046545,22231.8642008,56
1643468046545,22231.8642038,35
1643468046545,22231.8642067,44
1643468046545,22231.864257,63
1643468046545,22231.8642677,42
1643468046578,22231.8642715,37
1643468046578,22231.8642746,91
1643468046578,22231.8642777,82
1643468046578,22231.8642807,25
1643468046578,22231.8642838,42
1643468046578,22231.8642869,61
1643468046578,22231.8642928,47
1643468046578,22231.8642959,49
1643468046578,22231.8642989,73
1643468046578,22231.8643021,70
1643468046613,22231.8643053,0
1643468046613,22231.8643107,-30
1643468046613,22231.8643139,14
1643468046613,22231.8643169,30
1643468046613,22231.86432,25
1643468046613,22231.8643254,14
1643468046613,22231.8643286,25
1643468046613,22231.8643337,73
1643468046613,22231.8643368,73
1643468046613,22231.86434,28
1643468046644,22231.8643431,47
1643468046644,22231.8643487,91
1643468046644,22231.8643518,80
1643468046644,22231.8643571,58
1643468046644,22231.8643602,87
1643468046644,22231.8643653,101
1643468046644,22231.8643801,77
1643468046644,22231.8643967,80
1643468046644,22231.8644058,82
1643468046644,22231.8644322,65
1643468046678,22231.8644613,68
1643468046678,22231.864474,63
1643468046678,22232.4645949,51
1643468046678,22232.4646064,65
1643468046678,22232.4646113,56
1643468046678,22232.4646153,11
1643468046678,22232.4646184,4
1643468046678,22232.4646226,40
1643468046678,22232.4646256,131
1643468046678,22232.4646295,369
1643468046713,22232.4646325,671
1643468046713,22232.4646355,805
1643468046713,22232.4646385,600
1643468046713,22232.4646424,44
1643468046713,22232.4646455,-424
1643468046713,22232.4646494,-327
1643468046713,22232.4646524,-40
1643468046713,22232.4646555,-32
1643468046713,22232.4646594,-84
1643468046713,22232.4646624,-32
1643468046746,22232.4646653,-32
1643468046746,22232.4646683,-63
1643468046746,22232.4646712,-40
1643468046746,22232.4646754,-9
1643468046746,22232.4646784,-9
1643468046746,22232.4646825,-9
1643468046746,22232.4646855,4
1643468046746,22232.4646921,7
1643468046746,22232.464695,-23
1643468046746,22232.4646978,-35
1643468046779,22232.4647009,-7
1643468046779,22232.4647056,2
1643468046779,22232.4647085,-7
1643468046779,22232.4647129,16
1643468047146,22232.464718,44
1643468047146,22232.4647209,37
1643468047146,22232.4647237,37
1643468047146,22232.4647266,58
1643468047146,22232.4647294,56
1643468047146,22232.4647322,25
1643468047146,22232.4647349,18
1643468047146,22232.4647377,30
1643468047146,22232.4647409,44
1643468047146,22232.4647436,68
1643468047180,22232.4647464,68
1643468047180,22232.4647491,54
1643468047180,22232.464752,51
1643468047180,22232.4647548,25
1643468047180,22232.4647576,-4
1643468047180,22232.4647604,9
1643468047180,22232.4647631,30
1643468047180,22232.4647659,4
1643468047180,22232.4647689,-28
1643468047180,22232.4647723,-28
1643468047217,22232.4647754,-35
1643468047217,22232.4647796,-49
1643468047217,22232.4647837,-18
1643468047217,22232.4647868,18
1643468047217,22232.4647918,4
1643468047217,22232.4647946,-9
1643468047217,22232.4647976,-2
1643468047217,22232.4648006,11
1643468047217,22232.4648037,40
1643468047217,22232.4648087,18
1643468047246,22232.4648134,-16
1643468047246,22232.4648182,21
1643468047246,22232.4648225,35
1643468047246,22232.4648265,2
1643468047246,22232.4648295,4
1643468047246,22232.4648325,28
1643468047246,22232.4648355,7
1643468047246,22232.4648385,-47
1643468047246,22232.4648435,-54
1643468047246,22232.4648464,-4
1643468047279,22232.4648494,-2
1643468047279,22233.0626078,-49
1643468047279,22233.0626196,-51
1643468047279,22233.0626232,-32
1643468047279,22233.0626267,-14
1643468047279,22233.0626297,124
1643468047279,22233.0626326,405
1643468047279,22233.0626355,643
1643468047279,22233.0626384,650
1643468047279,22233.0626431,310
1643468047311,22233.0626471,-216
1643468047311,22233.0626502,-421
1643468047311,22233.062654,-212
1643468047311,22233.0626571,-87
1643468047311,22233.0626609,-148
1643468047311,22233.062664,-131
1643468047311,22233.0626677,-68
1643468047311,22233.0626708,-96
1643468047311,22233.0626747,-139
1643468047311,22233.0626777,-117
1643468047346,22233.0626815,-91
1643468047346,22233.0626845,-96
1643468047346,22233.0626885,-80
1643468047346,22233.0626915,-49
1643468047346,22233.0626958,-40
1643468047346,22233.062699,-44
1643468047346,22233.0627027,-49
1643468047346,22233.0627058,-54
1643468047346,22233.0627121,-42
1643468047346,22233.0627319,-14
1643468047379,22233.06274,9
1643468047379,22233.0627451,7
1643468047379,22233.0627484,0
1643468047379,22233.0627536,28
1643468047613,22233.0627569,37
1643468047613,22233.0627598,-11
1643468047613,22233.0627627,-21
1643468047613,22233.0627656,18
1643468047613,22233.0627684,18
1643468047613,22233.0627712,2
1643468047613,22233.0627741,16
1643468047613,22233.0628119,35
1643468047613,22233.0628173,35
1643468047613,22233.0628204,25
1643468047645,22233.0628235,25
1643468047645,22233.0628266,23
1643468047645,22233.0628322,-2
1643468047645,22233.0628352,-16
1643468047645,22233.0628382,2
1643468047645,22233.0628433,18
1643468047645,22233.0628464,9
1643468047645,22233.0628513,0
1643468047645,22233.0628544,0
1643468047645,22233.0628749,0
1643468047679,22233.062888,0
1643468047679,22233.0628942,-11
1643468047679,22233.0628973,-4
1643468047679,22233.0629023,25
1643468047679,22233.0629055,35
1643468047679,22233.0629105,7
1643468047679,22233.062914,-4
1643468047679,22233.062919,25
1643468047679,22233.0629221,47
1643468047679,22233.062927,32
1643468047712,22233.06293,21
1643468047712,22233.0629355,14
1643468047712,22233.0629386,-4
1643468047712,22233.0629436,-2
1643468047712,22233.0629467,7
1643468047712,22233.0629517,9
1643468047712,22233.0629547,23
1643468047712,22233.0629597,9
1643468047712,22233.0629628,-18
1643468047712,22233.0629943,-16
1643468047745,22233.5188043,0
1643468047745,22233.5188181,65
1643468047745,22233.518823,261
1643468047745,22233.5188282,504
1643468047745,22233.5188314,614
1643468047745,22233.5188355,461
1643468047745,22233.5188387,23
1643468047745,22233.5188437,-358
1643468047745,22233.5188468,-325
1643468047745,22233.5188519,-122
1643468047778,22233.5188565,-77
1643468047778,22233.5188613,-98
1643468047778,22233.5188651,-91
1643468047778,22233.5188692,-89
1643468047778,22233.5188722,-75
1643468047778,22233.5188773,-47
1643468047778,22233.5188802,-44
1643468047778,22233.5188833,-54
1643468047778,22233.5188882,-40
1643468047778,22233.5188913,-23
1643468047813,22233.5188944,-9
1643468047813,22233.5188974,-21
1643468047813,22233.5189015,-51
1643468047813,22233.5189046,-21
1643468047813,22233.5189094,35
1643468047813,22233.518914,21
1643468047813,22233.5189188,0
1643468047813,22233.5189217,-2
1643468047813,22233.5189248,-11
1643468047813,22233.5189287,25
1643468047845,22233.518932,70
1643468047845,22233.5189369,49
1643468047845,22233.518942,16
1643468047845,22233.5189469,21
1643468048301,22233.5189515,35
1643468048301,22233.5189544,42
1643468048301,22233.5189573,47
1643468048301,22233.5189602,56
1643468048301,22233.518963,35
1643468048301,22233.5189658,7
1643468048301,22233.5189686,35
1643468048301,22233.5189715,56
1643468048301,22233.5189743,30
1643468048301,22233.5189771,11
1643468048324,22233.51898,14
1643468048324,22233.5189829,14
1643468048324,22233.5189858,-4
1643468048324,22233.5189886,-14
1643468048324,22233.5189915,2
1643468048324,22233.5189976,25
1643468048324,22233.5190036,28
1643468048324,22233.5190067,16
1643468048324,22233.5190119,4
1643468048324,22233.5190151,14
1643468048345,22233.5190201,44
1643468048345,22233.5190229,68
1643468048345,22233.519026,77
1643468048345,22233.5190301,77
1643468048345,22233.5190332,65
1643468048345,22233.5190383,65
1643468048345,22233.5190412,84
1643468048345,22233.5190443,70
1643468048345,22233.5190481,11
1643468048345,22233.519052,-11
1643468048368,22233.5190552,7
1643468048368,22233.519059,4
1643468048368,22233.5190641,-4
1643468048368,22233.519067,2
1643468048368,22233.5190702,4
1643468048368,22233.5190749,-18
1643468048368,22233.5190787,42
1643468048368,22233.5190836,280
1643468048368,22233.5190874,558
1643468048368,22234.2181362,697
1643468048391,22234.2181473,586
1643468048391,22234.2181509,190
1643468048391,22234.218154,-275
1643468048391,22234.218157,-374
1643468048391,22234.2181599,-141
1643468048391,22234.2181628,-21
1643468048391,22234.2181656,-68
1643468048391,22234.2181685,-70
1643468048391,22234.2181714,-51
1643468048391,22234.2181742,-80
1643468048413,22234.2181771,-77
1643468048413,22234.2181799,-44
1643468048413,22234.2181828,-47
1643468048413,22234.2181856,-47
1643468048413,22234.2181884,-18
1643468048413,22234.2181913,-4
1643468048413,22234.2181941,-11
1643468048413,22234.218197,-9
1643468048413,22234.2181998,-7
1643468048413,22234.2182027,-4
1643468048436,22234.2182055,9
1643468048436,22234.2182084,25
1643468048436,22234.2182114,40
1643468048436,22234.2182143,44
1643468048436,22234.2182226,40
1643468048436,22234.2182257,25
1643468048436,22234.2182322,9
1643468048436,22234.2182353,0
1643468048436,22234.2182385,18
1643468048436,22234.2182435,82
1643468048458,22234.2182471,108
1643468048458,22234.218252,75
1643468048458,22234.2182552,73
1643468048458,22234.2182602,108
1643468048781,22234.2182634,98
1643468048781,22234.2182664,49
1643468048781,22234.2182693,51
1643468048781,22234.2182722,82
1643468048781,22234.2182751,61
1643468048781,22234.218278,28
1643468048781,22234.2182809,28
1643468048781,22234.2182837,37
1643468048781,22234.2182868,37
1643468048781,22234.2183928,44
1643468048812,22234.2184089,56
1643468048812,22234.2184136,49
1643468048812,22234.2184169,35
1643468048812,22234.2184203,51
1643468048812,22234.2184233,63
1643468048812,22234.2184262,35
1643468048812,22234.2184291,37
1643468048812,22234.218432,101
1643468048812,22234.2184349,117
1643468048812,22234.2184378,75
1643468048847,22234.2184407,63
1643468048847,22234.2184436,70
1643468048847,22234.2184466,49
1643468048847,22234.2184494,42
1643468048847,22234.2184523,37
1643468048847,22234.2184552,14
1643468048847,22234.2184581,21
1643468048847,22234.218461,35
1643468048847,22234.2184638,25
1643468048847,22234.2184667,21
1643468048878,22234.2184696,70
1643468048878,22234.2184725,245
1643468048878,22234.2184753,508
1643468048878,22234.2184782,720
1643468048878,22234.218481,720
1643468048878,22234.2184839,315
1643468048878,22234.2184873,-256
1643468048878,22234.2184902,-362
1643468048878,22234.6672921,-94
1643468048878,22234.6673061,-21
1643468048911,22234.6673099,-91
1643468048911,22234.6673156,-63
1643468048911,22234.6673187,-30
1643468048911,22234.6673218,-47
1643468048911,22234.6673255,-35
1643468048911,22234.6673287,-2
1643468048911,22234.6673329,-4
1643468048911,22234.6673361,-25
1643468048911,22234.6673412,-25
1643468048911,22234.6673443,-23
1643468048945,22234.6673493,-14
1643468048945,22234.6673525,7
1643468048945,22234.6673574,16
1643468048945,22234.6673605,14
1643468048945,22234.6673653,9
1643468048945,22234.6673685,14
1643468048945,22234.6673734,28
1643468048945,22234.6673764,37
1643468048945,22234.6673815,40
1643468048945,22234.6673846,44
1643468048978,22234.6673895,37
1643468048978,22234.6673926,35
1643468048978,22234.6673974,56
1643468048978,22234.667401,61
1643468048978,22234.6674058,42
1643468048978,22234.667409,28
1643468048978,22234.667414,21
1643468048978,22234.6674172,18
1643468048978,22234.6674221,21
1643468048978,22234.6674252,28
1643468049011,22234.6674303,30
1643468049011,22234.6674333,11
1643468049011,22234.6674412,-14
1643468049011,22234.6674451,-11
1643468049312,22234.6674501,-7
1643468049312,22234.667453,-11
1643468049312,22234.6674559,-21
1643468049312,22234.6674588,-7
1643468049312,22234.6674618,35
1643468049312,22234.6674647,35
1643468049312,22234.667468,11
1643468049312,22234.6674708,40
1643468049312,22234.6674736,75
1643468049312,22234.6674767,70
1643468049345,22234.6674796,56
1643468049345,22234.6674825,73
1643468049345,22234.6677994,91
1643468049345,22234.6678097,91
1643468049345,22234.6678135,77
1643468049345,22234.6678202,56
1643468049345,22234.6678233,28
1643468049345,22234.6678264,0
1643468049345,22234.6678319,-14
1643468049345,22234.6678349,-18
1643468049379,22234.667839,-14
1643468049379,22234.6678419,-2
1643468049379,22234.667845,-4
1643468049379,22234.6678494,-18
1643468049379,22234.6678526,4
1643468049379,22234.6678575,162
1643468049379,22234.6678607,440
1643468049379,22234.6678845,669
1643468049379,22234.6678984,702
1643468049379,22234.6679036,400
1643468049412,22234.6679072,-174
1643468049412,22234.6679126,-440
1643468049412,22234.6679158,-200
1643468049412,22234.6679216,-35
1643468049412,22234.6679248,-115
1643468049412,22234.6679296,-113
1643468049412,22234.6679327,-51
1643468049412,22235.2172516,-63
1643468049412,22235.2172635,-63
1643468049412,22235.2172672,-37
1643468049445,22235.2172722,-44
1643468049445,22235.217276,-47
1643468049445,22235.2172808,-30
1643468049445,22235.2172837,-28
1643468049445,22235.2172868,-47
1643468049445,22235.2172918,-58
1643468049445,22235.2172948,-58
1643468049445,22235.2172979,-54
1643468049445,22235.2173029,-37
1643468049445,22235.2173076,-25
1643468049479,22235.2173124,-47
1643468049479,22235.2173169,-54
1643468049479,22235.2173217,-25
1643468049479,22235.2173259,-14
1643468049479,22235.2173306,-25
1643468049479,22235.2173334,-23
1643468049479,22235.2173365,-14
1643468049479,22235.2173403,-21
1643468049479,22235.2173451,-25
1643468049479,22235.2173496,-18
1643468049512,22235.2173547,-9
1643468049512,22235.2173578,-9
1643468049512,22235.2173626,-11
1643468049512,22235.2173673,-14
1643468049512,22235.2173712,-18
1643468049512,22235.2173743,-28
1643468049512,22235.2173791,-35
1643468049512,22235.2173834,-49
1643468049512,22235.2173872,-51
1643468049512,22235.2173903,-37
1643468049544,22235.2173941,-18
1643468049544,22235.2173971,-9
1643468049544,22235.2174002,-23
1643468049544,22235.217404,-49
1643468049903,22235.2174071,-54
1643468049903,22235.2174099,-42
1643468049903,22235.2174128,-30
1643468049903,22235.2174156,-16
1643468049903,22235.2174184,-2
1643468049903,22235.2174214,9
1643468049903,22235.2174243,14
1643468049903,22235.2174271,2
1643468049903,22235.2175619,-7
1643468049903,22235.2175727,-4
1643468049924,22235.2175764,-2
1643468049924,22235.2175793,-18
1643468049924,22235.2175821,-25
1643468049924,22235.2175849,-21
1643468049924,22235.2175877,-51
1643468049924,22235.2175906,-84
1643468049924,22235.2175934,-65
1643468049924,22235.2175962,-30
1643468049924,22235.217599,-11
1643468049924,22235.2176019,35
1643468049944,22235.2176047,167
1643468049944,22235.2176076,381
1643468049944,22235.2176104,563
1643468049944,22235.2176131,508
1643468049944,22235.217616,103
1643468049944,22235.2176195,-351
1643468049944,22235.2176223,-372
1643468049944,22235.2176252,-122
1643468049944,22235.217628,-61
1643468049944,22235.2176308,-117
1643468049967,22235.2176336,-75
1643468049967,22235.2176365,-25
1643468049967,22235.2176394,-47
1643468049967,22235.2176423,-21
1643468049967,22235.2176452,-58
1643468049967,22235.217648,-186
1643468049967,22235.8147544,-157
1643468049967,22235.8147695,-84
1643468049967,22235.814773,-84
1643468049967,22235.814776,-28
1643468049990,22235.8147791,0
1643468049990,22235.8147822,-44
1643468049990,22235.8147853,-40
1643468049990,22235.8147885,9
1643468049990,22235.814794,21
1643468049990,22235.8147971,4
1643468049990,22235.8148022,-2
1643468049990,22235.8148054,-2
1643468049990,22235.8148103,-28
1643468049990,22235.8148134,-61
1643468050015,22235.8148184,-61
1643468050015,22235.8148216,-44
1643468050015,22235.8148265,-16
1643468050015,22235.81483,-4
1643468050015,22235.8148341,-37
1643468050015,22235.814837,-42
1643468050015,22235.8148401,-9
1643468050015,22235.8148432,-7
1643468050015,22235.8148476,-18
1643468050015,22235.8148505,-16
1643468050035,22235.8148537,4
1643468050035,22235.8148591,7
1643468050035,22235.8148621,-21
1643468050035,22235.8148652,-44
1643468050035,22235.8148683,-40
1643468050035,22235.8148733,-9
1643468050035,22235.8148771,-7
1643468050035,22235.8148837,-47
1643468050035,22235.8148873,-58
1643468050035,22235.8148923,-25
1643468050060,22235.8148954,-14
1643468050060,22235.8149008,-23
1643468050060,22235.8149038,-16
1643468050060,22235.8149069,-14
1643468050478,22235.8149118,-14
1643468050478,22235.8149149,23
1643468050478,22235.8149179,61
1643468050478,22235.8149212,42
1643468050478,22235.8149242,16
1643468050478,22235.8149271,11
1643468050478,22235.81493,2
1643468050478,22235.814933,-9
1643468050478,22235.8149359,-14
1643468050478,22235.8149388,-14
1643468050513,22235.8149416,11
1643468050513,22235.8149445,18
1643468050513,22235.8149474,-21
1643468050513,22235.8149503,-35
1643468050513,22235.8149537,11
1643468050513,22235.8149566,91
1643468050513,22235.8149595,237
1643468050513,22235.8149624,454
1643468050513,22235.8149654,619
1643468050513,22235.8149683,527
1643468050545,22235.8149712,87
1643468050545,22235.8149741,-346
1643468050545,22235.814977,-296
1643468050545,22235.8149801,-42
1643468050545,22235.814983,-40
1643468050545,22235.814986,-108
1643468050545,22235.814989,-65
1643468050545,22235.8149919,-30
1643468050545,22235.8149948,-23
1643468050545,22235.8149977,2
1643468050578,22235.8150006,7
1643468050578,22235.8150037,-35
1643468050578,22235.8150067,-51
1643468050578,22235.8150095,-25
1643468050578,22235.8150125,-11
1643468050578,22236.3673085,0
1643468050578,22236.3673217,18
1643468050578,22236.367326,23
1643468050578,22236.3673292,14
1643468050578,22236.3673322,14
1643468050611,22236.3673354,9
1643468050611,22236.3673407,4
1643468050611,22236.3673436,16
1643468050611,22236.3673466,54
1643468050611,22236.3673497,56
1643468050611,22236.3673528,-16
1643468050611,22236.3673571,-47
1643468050611,22236.3673602,-11
1643468050611,22236.3673651,-4
1643468050611,22236.367368,-14
1643468050646,22236.3673711,7
1643468050646,22236.3673761,16
1643468050646,22236.3673793,-2
1643468050646,22236.3673844,0
1643468050646,22236.3673874,25
1643468050646,22236.3673905,54
1643468050646,22236.3673947,37
1643468050646,22236.3673978,-32
1643468050646,22236.3674018,0
1643468050646,22236.3674048,77
1643468050678,22236.3674098,-11
1643468050678,22236.3674143,-96
1643468050678,22236.3674191,-11
1643468050678,22236.3674237,37
1643468050678,22236.3674287,-9
1643468050678,22236.3674332,-2
1643468050678,22236.3674385,32
1643468050678,22236.3674416,40
1643468050678,22236.3674457,47
1643468050678,22236.3674489,58
1643468050712,22236.3674539,75
1643468050712,22236.3674568,68
1643468050712,22236.3674622,70
1643468050712,22236.3674671,98
1643468051014,22236.3674703,77
1643468051014,22236.3674732,30
1643468051014,22236.3674761,23
1643468051014,22236.367479,54
1643468051014,22236.3674818,61
1643468051014,22236.3674848,18
1643468051014,22236.3674877,0
1643468051014,22236.3674906,42
1643468051014,22236.3674935,82
1643468051014,22236.3674963,14
1643468051046,22236.3674992,-37
1643468051046,22236.3675022,176
1643468051046,22236.3675051,541
1643468051046,22236.3675079,810
1643468051046,22236.3675107,874
1643468051046,22236.3675136,508
1643468051046,22236.3675166,-141
1643468051046,22236.3675197,-417
1643468051046,22236.3675249,-200
1643468051046,22236.3675279,-35
1643468051079,22236.3675329,-54
1643468051079,22236.367536,-28
1643468051079,22236.3675411,9
1643468051079,22236.367545,9
1643468051079,22236.367548,-11
1643468051079,22236.3675511,-14
1643468051079,22236.3675548,51
1643468051079,22236.36756,25
1643468051079,22236.3675631,-73
1643468051079,22236.3675682,-49
1643468051112,22236.3675714,-35
1643468051112,22236.3675763,-80
1643468051112,22236.3675795,30
1643468051112,22236.3675848,134
1643468051112,22236.9153216,58
1643468051112,22236.9153348,18
1643468051112,22236.9153397,68
1643468051112,22236.9153447,87
1643468051112,22236.9153493,65
1643468051112,22236.915354,32
1643468051146,22236.9153586,30
1643468051146,22236.9153633,40
1643468051146,22236.915367,25
1643468051146,22236.9153701,28
1643468051146,22236.9153751,68
1643468051146,22236.9153796,98
1643468051146,22236.9153838,56
1643468051146,22236.9153868,-4
1643468051146,22236.9153906,7
1643468051146,22236.9153935,30
1643468051179,22236.9153966,0
1643468051179,22236.9154013,-21
1643468051179,22236.9154043,4
1643468051179,22236.9154073,42
1643468051179,22236.9154103,-14
1643468051179,22236.9154133,-127
1643468051179,22236.9154162,-82
1643468051179,22236.9154192,25
1643468051179,22236.9154221,11
1643468051179,22236.915425,2
1643468051213,22236.9154279,65
1643468051213,22236.9154308,103
1643468051213,22236.9154338,47
1643468051213,22236.9154387,-58
1643468051213,22236.9154434,-77
1643468051213,22236.9154481,-2
1643468051213,22236.9154509,63
1643468051213,22236.9154538,82
1643468051213,22236.9154568,42
1643468051213,22236.9154597,23
1643468051235,22236.9154654,70
1643468051235,22236.9154693,65
1643468051235,22236.9154722,23
1643468051235,22236.915475,35
1643468051602,22236.9154778,65
1643468051602,22236.9154809,103
1643468051602,22236.9154837,75
1643468051602,22236.9154865,-68
1643468051602,22236.9154894,-122
1643468051602,22236.9154923,-4
1643468051602,22236.9154951,195
1643468051602,22236.915498,454
1643468051602,22236.9155008,659
1643468051602,22236.9155036,690
1643468051634,22236.9155063,435
1643468051634,22236.9155091,-68
1643468051634,22236.9155119,-381
1643468051634,22236.9155146,-242
1643468051634,22236.9155174,-40
1643468051634,22236.9155202,-56
1643468051634,22236.915523,-91
1643468051634,22236.9155258,-61
1643468051634,22236.915529,-58
1643468051634,22236.9155319,-23
1643468051669,22236.915535,63
1643468051669,22236.9155379,87
1643468051669,22236.9155409,11
1643468051669,22236.9155438,-51
1643468051669,22236.9155468,-7
1643468051669,22236.9155524,-4
1643468051669,22236.9155551,-63
1643468051669,22236.9155581,-21
1643468051669,22236.915561,37
1643468051669,22236.915564,2
1643468051701,22236.915567,-9
1643468051701,22236.9155699,35
1643468051701,22236.9155728,30
1643468051701,22237.5166749,-9
1643468051701,22237.5166881,-18
1643468051701,22237.5166938,9
1643468051701,22237.5167382,35
1643468051701,22237.5167445,23
1643468051701,22237.5167487,-7
1643468051701,22237.5167517,2
1643468051735,22237.5167547,16
1643468051735,22237.5167587,-28
1643468051735,22237.5167617,-51
1643468051735,22237.5167659,7
1643468051735,22237.5167689,37
1643468051735,22237.5167728,2
1643468051735,22237.5167758,-23
1643468051735,22237.516781,-47
1643468051735,22237.5167838,-70
1643468051735,22237.5167869,-61
1643468051768,22237.516791,-80
1643468051768,22237.516794,-98
1643468051768,22237.5167981,-30
1643468051768,22237.5168011,30
1643468051768,22237.5168052,-4
1643468051768,22237.5168082,-40
1643468051768,22237.5168123,-61
1643468051768,22237.5168153,-89
1643468051768,22237.5168202,-25
1643468051768,22237.516823,65
1643468051801,22237.516826,37
1643468051801,22237.516829,-2
1643468051801,22237.5168319,23
1643468051801,22237.5168349,30
1643468051801,22237.5168389,7
1643468051801,22237.5168419,-11
1643468051801,22237.516845,-16
1643468051801,22237.5168489,9
1643468051801,22237.5168519,11
1643468051801,22237.5168569,-35
1643468051836,22237.5168597,-40
1643468051836,22237.5168627,-18
1643468051836,22237.5168658,-54
1643468051836,22237.5168708,-106
1643468052169,22237.5168737,-61
1643468052169,22237.5168766,82
1643468052169,22237.5168795,254
1643468052169,22237.5168824,454
1643468052169,22237.5168853,612
1643468052169,22237.516888,541
1643468052169,22237.5168908,131
1643468052169,22237.5168938,-329
1643468052169,22237.5168967,-353
1643468052169,22237.5169239,-82
1643468052202,22237.5169311,-37
1643468052202,22237.5169377,-136
1643468052202,22237.516941,-101
1643468052202,22237.5169449,-63
1643468052202,22237.5169479,-113
1643468052202,22237.5169528,-101
1643468052202,22237.5169558,-37
1643468052202,22237.5169589,-28
1643468052202,22237.5169631,-56
1643468052202,22237.5169676,-54
1643468052235,22237.5169721,-25
1643468052235,22237.5169753,-21
1643468052235,22237.5169802,-44
1643468052235,22237.5169832,-51
1643468052235,22237.5169863,-28
1643468052235,22237.5169901,7
1643468052235,22237.5169952,14
1643468052235,22237.5169983,2
1643468052235,22237.5170015,-18
1643468052235,22237.5170086,-30
1643468052268,22237.5170118,-7
1643468052268,22237.5170291,25
1643468052268,22238.0672779,25
1643468052268,22238.0672913,-2
1643468052268,22238.0672962,-32
1643468052268,22238.0673006,-37
1643468052268,22238.0673046,9
1643468052268,22238.0673077,32
1643468052268,22238.0673128,-32
1643468052268,22238.0673158,-54
1643468052301,22238.067319,-4
1643468052301,22238.0673241,-14
1643468052301,22238.0673271,-47
1643468052301,22238.0673301,-42
1643468052301,22238.0673341,-44
1643468052301,22238.0673371,-77
1643468052301,22238.0673423,-94
1643468052301,22238.067347,-82
1643468052301,22238.0673518,-54
1643468052301,22238.0673558,-47
1643468052334,22238.0673606,-70
1643468052334,22238.0673653,-82
1643468052334,22238.0673705,-75
1643468052334,22238.0673735,-80
1643468052334,22238.0673783,-82
1643468052334,22238.0673831,-77
1643468052334,22238.0673879,-75
1643468052334,22238.0673923,-51
1643468052334,22238.0673971,-25
1643468052334,22238.0674018,-28
1643468052369,22238.0674068,-28
1643468052369,22238.0674112,-37
1643468052369,22238.0674159,-68
1643468052369,22238.0674188,-87
1643468052369,22238.0674219,-87
1643468052369,22238.0674268,-94
1643468052369,22238.0674314,-98
1643468052369,22238.0674354,-82
1643468052369,22238.0674385,-63
1643468052369,22238.0674433,-68
1643468052402,22238.0674482,-73
1643468052402,22238.0674529,2
1643468052402,22238.0674576,188
1643468052402,22238.0674624,421
1643468052702,22238.0674661,584
1643468052702,22238.0674691,506
1643468052702,22238.0674719,51
1643468052702,22238.0674748,-424
1643468052702,22238.0674777,-379
1643468052702,22238.0674806,-117
1643468052702,22238.0674834,-120
1643468052702,22238.0674863,-171
1643468052702,22238.0674891,-115
1643468052702,22238.067492,-101
1643468052735,22238.0674948,-122
1643468052735,22238.0674976,-113
1643468052735,22238.0675004,-77
1643468052735,22238.0675039,-61
1643468052735,22238.0675069,-68
1643468052735,22238.0675099,-70
1643468052735,22238.0675151,-56
1643468052735,22238.0675182,-54
1643468052735,22238.0675222,-65
1643468052735,22238.0675252,-68
1643468052769,22238.0675299,-80
1643468052769,22238.0675336,-91
1643468052769,22238.0675383,-37
1643468052769,22238.0675413,28
1643468052769,22238.0675444,-51
1643468052769,22238.0675493,-174
1643468052769,22238.0675525,-131
1643468052769,22238.0675557,-61
1643468052769,22238.0675605,-80
1643468052769,22238.067565,-75
1643468052801,22238.0675697,-42
1643468052801,22238.6188852,-35
1643468052801,22238.6188969,-37
1643468052801,22238.6189002,-54
1643468052801,22238.6189031,-75
1643468052801,22238.6189061,-75
1643468052801,22238.6189092,-65
1643468052801,22238.6189122,-68
1643468052801,22238.6189164,-68
1643468052801,22238.6189194,-82
1643468052835,22238.6189257,-87
1643468052835,22238.6189287,-61
1643468052835,22238.6189317,-84
1643468052835,22238.6189347,-157
1643468052835,22238.6189384,-157
1643468052835,22238.6189414,-113
1643468052835,22238.6189444,-87
1643468052835,22238.6189485,-73
1643468052835,22238.6189516,-58
1643468052835,22238.6189557,-42
1643468052868,22238.6189587,-91
1643468052868,22238.6189625,-181
1643468052868,22238.6189655,-157
1643468052868,22238.6189696,-87
1643468052868,22238.6189727,-84
1643468052868,22238.6189777,-98
1643468052868,22238.6189806,-80
1643468052868,22238.6189836,-58
1643468052868,22238.6189866,-54
1643468052868,22238.6189895,-49
1643468052903,22238.6189935,-56
1643468052903,22238.6189964,-80
1643468052903,22238.6189995,-80
1643468052903,22238.6190035,-65
1643468052903,22238.6190109,-65
1643468052903,22238.6190151,-65
1643468052903,22238.6190205,-63
1643468052903,22238.6190236,-75
1643468052903,22238.6190274,-63
1643468052903,22238.6190306,80
1643468052935,22238.6190344,376
1643468052935,22238.6190375,650
1643468052935,22238.6190413,702
1643468052935,22238.6190445,409
1643468053401,22238.6190483,-181
1643468053401,22238.6190513,-541
1643468053401,22238.6190541,-341
1643468053401,22238.619057,-115
1643468053401,22238.6190598,-139
1643468053401,22238.6190627,-139
1643468053401,22238.6190655,-101
1643468053401,22238.6190683,-117
1643468053401,22238.6190712,-129
1643468053401,22238.6190741,-101
1643468053425,22238.6190769,-77
1643468053425,22238.6190797,-82
1643468053425,22238.6190825,-87
1643468053425,22238.6190854,-68
1643468053425,22238.6190881,-49
1643468053425,22238.6190909,-61
1643468053425,22238.6190937,-80
1643468053425,22238.6190965,-61
1643468053425,22238.6190995,-37
1643468053425,22238.6191033,-63
1643468053446,22238.6191074,-91
1643468053446,22238.6191104,-63
1643468053446,22238.6191142,-49
1643468053446,22238.6191172,-63
1643468053446,22238.6191443,-58
1643468053446,22238.619155,-40
1643468053446,22238.6191587,-28
1643468053446,22238.6191638,-42
1643468053446,22238.6191668,-56
1643468053446,22238.6191709,-47
1643468053468,22239.3128208,-44
1643468053468,22239.312832,-54
1643468053468,22239.3128356,-23
1643468053468,22239.3128397,4
1643468053468,22239.3128429,-21
1643468053468,22239.3128469,-44
1643468053468,22239.31285,-56
1643468053468,22239.3128539,-82
1643468053468,22239.3128571,-82
1643468053468,22239.3128601,-54
1643468053491,22239.3128645,-32
1643468053491,22239.3128675,9
1643468053491,22239.3128715,2
1643468053491,22239.3128746,-63
1643468053491,22239.3128776,-58
1643468053491,22239.3128807,-35
1643468053491,22239.3128837,-49
1643468053491,22239.3128866,-44
1643468053491,22239.3128896,-44
1643468053491,22239.3128927,-47
1643468053512,22239.3128957,-42
1643468053512,22239.3128987,-51
1643468053512,22239.3129017,-32
1643468053512,22239.3129048,-9
1643468053512,22239.3129077,-21
1643468053512,22239.3129107,-9
1643468053512,22239.3129139,4
1643468053512,22239.3129169,-40
1643468053512,22239.3129199,-61
1643468053512,22239.3129228,-37
1643468053545,22239.3129258,-49
1643468053545,22239.3129287,-56
1643468053545,22239.3129318,0
1643468053545,22239.3129348,18
1643468053545,22239.3129379,-21
1643468053545,22239.3129409,25
1643468053545,22239.3129451,207
1643468053545,22239.3129482,478
1643468053545,22239.3129522,683
1643468053545,22239.3129552,626
1643468053578,22239.3129592,190
1643468053578,22239.3129621,-367
1643468053578,22239.3129652,-442
1643468053578,22239.3129682,-143
1643468053912,22239.3129712,-61
1643468053912,22239.3129742,-141
1643468053912,22239.312977,-110
1643468053912,22239.3129798,-37
1643468053912,22239.3129826,-49
1643468053912,22239.3129854,-120
1643468053912,22239.3129882,-110
1643468053912,22239.3129909,-42
1643468053912,22239.312994,-35
1643468053912,22239.3129967,-49
1643468053945,22239.3129995,-51
1643468053945,22239.3130022,-49
1643468053945,22239.313005,-28
1643468053945,22239.3130078,-9
1643468053945,22239.3130107,18
1643468053945,22239.3130136,16
1643468053945,22239.3130164,-54
1643468053945,22239.3130192,-51
1643468053945,22239.3130249,35
1643468053945,22239.3130281,23
1643468053979,22239.313032,-35
1643468053979,22239.313035,-11
1643468053979,22239.3130381,25
1643468053979,22239.3130412,11
1643468053979,22239.3130442,-21
1643468053979,22239.3130474,-37
1643468053979,22239.3130514,-35
1643468053979,22239.3130544,-7
1643468053979,22239.3130574,61
1643468053979,22239.8158678,110
1643468054012,22239.8158798,84
1643468054012,22239.8158833,40
1643468054012,22239.8158883,63
1643468054012,22239.8158933,73
1643468054012,22239.8158982,-2
1643468054012,22239.8159011,-42
1643468054012,22239.8159041,-4
1643468054012,22239.8159071,23
1643468054012,22239.8159101,28
1643468054012,22239.815913,32
1643468054046,22239.815916,23
1643468054046,22239.815919,23
1643468054046,22239.8159229,47
1643468054046,22239.8159259,51
1643468054046,22239.8159289,44
1643468054046,22239.8159319,47
1643468054046,22239.8159348,35
1643468054046,22239.8159378,30
1643468054046,22239.8159418,44
1643468054046,22239.8159448,42
1643468054078,22239.8159499,49
1643468054078,22239.8159527,61
1643468054078,22239.8159557,11
1643468054078,22239.8159587,-23
1643468054078,22239.8159616,16
1643468054078,22239.8159646,23
1643468054078,22239.8159675,2
1643468054078,22239.8159706,23
1643468054078,22239.8159748,30
1643468054078,22239.8159778,-28
1643468054113,22239.8159827,-49
1643468054113,22239.8159856,16
1643468054113,22239.8159885,167
1643468054113,22239.8159927,407
1643468054113,22239.8159958,579
1643468054113,22239.8160006,584
1643468054113,22239.8160034,367
1643468054113,22239.8160065,-127
1643468054113,22239.8160105,-438
1643468054113,22239.8160135,-228
1643468054146,22239.8160165,-14
1643468054146,22239.8160195,-25
1643468054146,22239.8160243,-42
1643468054146,22239.8160292,-77
1643468054645,22239.816034,-89
1643468054645,22239.8160369,-25
1643468054645,22239.8160398,-47
1643468054645,22239.8160426,-117
1643468054645,22239.8160455,-80
1643468054645,22239.8160483,-4
1643468054645,22239.8160511,-18
1643468054645,22239.8160539,-73
1643468054645,22239.8160567,-63
1643468054645,22239.8160595,-11
1643468054667,22239.8160623,-18
1643468054667,22239.8160651,-44
1643468054667,22239.8160679,-25
1643468054667,22239.8160707,-9
1643468054667,22239.8160736,-23
1643468054667,22239.8160764,-32
1643468054667,22239.8160791,-7
1643468054667,22239.8160822,14
1643468054667,22239.816088,-35
1643468054667,22239.8160912,-63
1643468054690,22239.8160943,-16
1643468054690,22239.8160995,16
1643468054690,22239.8161024,16
1643468054690,22239.8161054,-16
1643468054690,22239.8161084,-37
1643468054690,22239.8161114,11
1643468054690,22239.8161154,23
1643468054690,22239.8161184,-16
1643468054690,22240.5647174,-9
1643468054690,22240.5647303,-7
1643468054712,22240.5647355,-25
1643468054712,22240.5647411,18
1643468054712,22240.5647446,51
1643468054712,22240.5647476,32
1643468054712,22240.5647512,44
1643468054712,22240.5647542,65
1643468054712,22240.5647594,65
1643468054712,22240.5647623,61
1643468054712,22240.5647653,58
1643468054712,22240.5647682,63
1643468054735,22240.5647711,47
1643468054735,22240.5647741,-2
1643468054735,22240.5647771,-4
1643468054735,22240.5647801,11
1643468054735,22240.5647831,9
1643468054735,22240.5647861,44
1643468054735,22240.564789,84
1643468054735,22240.5647921,75
1643468054735,22240.564795,47
1643468054735,22240.5647979,28
1643468054757,22240.5648009,18
1643468054757,22240.5648038,14
1643468054757,22240.5648067,0
1643468054757,22240.5648097,-7
1643468054757,22240.5648127,-11
1643468054757,22240.5648157,-25
1643468054757,22240.5648186,-23
1643468054757,22240.5648216,-11
1643468054757,22240.5648245,18
1643468054757,22240.5648275,157
1643468054780,22240.5648305,412
1643468054780,22240.5648345,614
1643468054780,22240.5648375,621
1643468054780,22240.5648406,308
1643468054780,22240.5648456,-204
1643468054780,22240.5648485,-369
1643468054780,22240.5648515,-117
1643468054780,22240.5648545,16
1643468054780,22240.5648575,-37
1643468054780,22240.5648606,-25
1643468054801,22240.5648655,9
1643468054801,22240.5648682,-23
1643468054801,22240.5648712,-32
1643468054801,22240.5648741,11
1643468054912,22240.5648771,-25
1643468054912,22240.56488,-37
1643468054912,22240.5648828,117
1643468054912,22240.5648855,171
1643468054912,22240.5648883,65
1643468054912,22240.5648911,51
1643468054912,22240.5648939,94
1643468054912,22240.5648966,61
1643468054912,22240.5648993,30
1643468054912,22240.564902,44
1643468054934,22240.5649048,44
1643468054934,22240.5649076,40
1643468054934,22240.5649104,49
1643468054934,22240.5649132,47
1643468054934,22240.564916,40
1643468054934,22240.5649188,56
1643468054934,22240.5649217,70
1643468054934,22240.5649246,63
1643468054934,22240.5649276,56
1643468054934,22240.5649307,61
1643468054960,22240.5649356,63
1643468054960,22240.5649385,80
1643468054960,22240.5649416,91
1643468054960,22240.5649465,70
1643468054960,22240.5649494,63
1643468054960,22240.5649524,101
1643468054960,22240.5649564,103
1643468054960,22240.8181953,70
1643468054960,22240.8182073,82
1643468054960,22240.8182109,101
1643468054977,22240.818214,106
1643468054977,22240.8182169,113
1643468054977,22240.81822,110
1643468054977,22240.8182229,108
1643468054977,22240.8182273,103
1643468054977,22240.8182313,91
1643468054977,22240.8182356,106
1643468054977,22240.8182385,127
1643468054977,22240.8182422,113
1643468054977,22240.818245,89
1643468055002,22240.818248,98
1643468055002,22240.8182508,124
1643468055002,22240.8182537,141
1643468055002,22240.8182565,127
1643468055002,22240.8182594,108
1643468055002,22240.8182622,108
1643468055002,22240.8182651,110
1643468055002,22240.8182679,94
1643468055002,22240.8182708,77
1643468055002,22240.8182736,65
1643468055025,22240.8182764,56
1643468055025,22240.8182792,40
1643468055025,22240.8182821,35
1643468055025,22240.8182849,58
1643468055025,22240.8182878,87
1643468055025,22240.818291,219
1643468055025,22240.8182939,506
1643468055025,22240.8182967,763
1643468055025,22240.8182995,798
1643468055025,22240.8183023,482
1643468055045,22240.8183053,-113
1643468055045,22240.8183085,-402
1643468055045,22240.8183114,-164
1643468055045,22240.8183143,11
1643468055045,22240.8183174,-65
1643468055045,22240.8183241,-65
1643468055045,22240.8183282,-7
1643468055045,22240.8183312,-14
1643468055045,22240.8183344,-11
1643468055045,22240.8183383,-4
1643468055068,22240.8183413,-44
1643468055068,22240.8183445,-37
1643468055068,22240.8183489,9
1643468055068,22240.8183527,-4
1643468055567,22240.8183559,-25
1643468055567,22240.8183589,0
1643468055567,22240.8183619,7
1643468055567,22240.8183648,-11
1643468055567,22240.8183676,-4
1643468055567,22240.8183705,11
1643468055567,22240.8183734,-9
1643468055567,22240.8183763,-9
1643468055567,22240.8183799,32
1643468055567,22240.8183828,32
1643468055601,22240.8183858,7
1643468055601,22240.8183889,9
1643468055601,22240.8183918,16
1643468055601,22240.8183947,16
1643468055601,22240.8183975,9
1643468055601,22240.8184005,2
1643468055601,22240.8184034,0
1643468055601,22240.8184066,14
1643468055601,22240.8184099,28
1643468055601,22240.8184135,35
1643468055635,22240.8184165,40
1643468055635,22240.8184195,44
1643468055635,22240.8184223,54
1643468055635,22240.8184251,75
1643468055635,22240.818428,70
1643468055635,22240.8184308,49
1643468055635,22241.4680227,61
1643468055635,22241.4680357,80
1643468055635,22241.4680393,61
1643468055635,22241.468045,54
1643468055668,22241.4680481,75
1643468055668,22241.468053,80
1643468055668,22241.4680561,80
1643468055668,22241.4680609,84
1643468055668,22241.4680639,68
1643468055668,22241.4680689,44
1643468055668,22241.4680719,25
1643468055668,22241.4680768,21
1643468055668,22241.4680799,37
1643468055668,22241.4680864,54
1643468055702,22241.4680903,65
1643468055702,22241.4680952,77
1643468055702,22241.4680984,63
1643468055702,22241.4681036,37
1643468055702,22241.4681066,49
1643468055702,22241.4681096,54
1643468055702,22241.4681126,9
1643468055702,22241.4681155,14
1643468055702,22241.4681185,51
1643468055702,22241.4681215,18
1643468055735,22241.468127,9
1643468055735,22241.46813,157
1643468055735,22241.468133,471
1643468055735,22241.4681379,805
1643468055735,22241.468141,968
1643468055735,22241.4681458,777
1643468055735,22241.4681489,117
1643468055735,22241.4681537,-457
1643468055735,22241.4681567,-315
1643468055735,22241.4681597,-4
1643468055770,22241.4681628,-65
1643468055770,22241.4681675,-117
1643468055770,22241.4681705,-35
1643468055770,22241.468176,-56
1643468055770,22241.4681791,-96
1643468055770,22241.4681839,-42
1643468055770,22241.468187,2
1643468055770,22241.4681916,-21
1643468055770,22241.4681948,-32
1643468055770,22241.4681997,-14
1643468055801,22241.4682028,-2
1643468055801,22241.4682077,-4
1643468055801,22241.4682107,-11
1643468055801,22241.4682138,-2
1643468056068,22241.4682188,21
1643468056068,22241.4682217,23
1643468056068,22241.4682247,44
1643468056068,22241.4682275,96
1643468056068,22241.4682303,58
1643468056068,22241.4682331,-23
1643468056068,22241.4682359,0
1643468056068,22241.4682388,35
1643468056068,22241.4682416,2
1643468056068,22241.4682444,-2
1643468056104,22241.4682472,18
1643468056104,22241.46825,23
1643468056104,22241.4682528,30
1643468056104,22241.4682579,21
1643468056104,22241.4682612,14
1643468056104,22241.4682656,35
1643468056104,22241.4682685,42
1643468056104,22241.4682716,28
1643468056104,22241.4682746,35
1643468056104,22241.4682797,63
1643468056135,22241.4682829,75
1643468056135,22241.468288,56
1643468056135,22241.4682911,58
1643468056135,22241.4682961,122
1643468056135,22241.4682992,131
1643468056135,22241.9668028,35
1643468056135,22241.9668153,40
1643468056135,22241.9668189,167
1643468056135,22241.966824,108
1643468056135,22241.9668273,-63
1643468056167,22241.9668321,-2
1643468056167,22241.9668361,80
1643468056167,22241.966841,16
1643468056167,22241.9668456,30
1643468056167,22241.9668504,80
1643468056167,22241.9668548,80
1643468056167,22241.9668589,80
1643468056167,22241.9668618,68
1643468056167,22241.9668649,30
1643468056167,22241.9668678,11
1643468056201,22241.9668718,2
1643468056201,22241.9668748,4
1643468056201,22241.9668797,25
1643468056201,22241.9668835,37
1643468056201,22241.9668883,30
1643468056201,22241.9668929,75
1643468056201,22241.966898,216
1643468056201,22241.9669011,405
1643468056201,22241.9669053,617
1643468056201,22241.9669083,789
1643468056236,22241.9669131,600
1643468056236,22241.9669177,-58
1643468056236,22241.9669225,-504
1643468056236,22241.9669253,-289
1643468056236,22241.9669283,-21
1643468056236,22241.9669332,-87
1643468056236,22241.9669378,-150
1643468056236,22241.9669427,-103
1643468056236,22241.9669471,-101
1643468056236,22241.9669518,-115
1643468056269,22241.9669561,-82
1643468056269,22241.9669608,-58
1643468056269,22241.9669653,-54
1643468056269,22241.9669702,-18
1643468056269,22241.9669749,7
1643468056269,22241.9669789,-54
1643468056269,22241.9669819,-117
1643468056269,22241.9669848,-75
1643468056269,22241.9669879,-21
1643468056269,22241.9669908,-21
1643468056301,22241.9669938,-32
1643468056301,22241.9669987,-30
1643468056301,22241.9670015,-16
1643468056301,22241.9670045,9
1643468056756,22241.9670095,14
1643468056756,22241.9670134,-9
1643468056756,22241.9670162,-9
1643468056756,22241.967019,9
1643468056756,22241.9670218,0
1643468056756,22241.9670246,-7
1643468056756,22241.9670273,7
1643468056756,22241.9670301,7
1643468056756,22241.9670329,2
1643468056756,22241.9670357,9
1643468056777,22241.9670384,2
1643468056777,22241.9670412,7
1643468056777,22241.967044,35
1643468056777,22241.9670467,16
1643468056777,22241.9670494,-14
1643468056777,22241.9670522,7
1643468056777,22241.967055,25
1643468056777,22241.9670578,16
1643468056777,22241.9670605,28
1643468056777,22241.9670633,30
1643468056801,22241.9670661,21
1643468056801,22241.9670689,37
1643468056801,22241.9670716,47
1643468056801,22241.9670744,32
1643468056801,22242.663036,23
1643468056801,22242.6630486,16
1643468056801,22242.6630539,11
1643468056801,22242.6630589,35
1643468056801,22242.6630635,51
1643468056801,22242.6630684,37
1643468056824,22242.6630723,32
1643468056824,22242.663077,44
1643468056824,22242.6630804,49
1643468056824,22242.6630834,40
1643468056824,22242.6630864,16
1643468056824,22242.6630903,9
1643468056824,22242.6630935,18
1643468056824,22242.6630974,-14
1643468056824,22242.6631004,-63
1643468056824,22242.6631044,-65
1643468056845,22242.6631074,-18
1643468056845,22242.6631104,124
1643468056845,22242.6631154,384
1643468056845,22242.6631193,631
1643468056845,22242.6631241,737
1643468056845,22242.6631287,563
1643468056845,22242.6631334,4
1643468056845,22242.6631364,-471
1643468056845,22242.6631395,-343
1643468056845,22242.6631445,-61
1643468056868,22242.6631476,-89
1643468056868,22242.6631516,-143
1643468056868,22242.6631546,-75
1643468056868,22242.6631576,-47
1643468056868,22242.663162,-63
1643468056868,22242.663165,-63
1643468056868,22242.6631699,-58
1643468056868,22242.6631729,-40
1643468056868,22242.663176,-21
1643468056868,22242.663181,-16
1643468056890,22242.6631839,-2
1643468056890,22242.6631876,2
1643468056890,22242.6631927,-16
1643468056890,22242.6631956,-21
1643468056890,22242.6631996,-9
1643468056890,22242.6632027,0
1643468056890,22242.6632075,21
1643468056890,22242.6632105,21
1643468056890,22242.6632136,-7
1643468056890,22242.6632188,2
1643468056915,22242.6632223,30
1643468056915,22242.6632272,14
1643468056915,22242.6632315,-2
1643468056915,22242.6632363,23
1643468057424,22242.663241,37
1643468057424,22242.663244,16
1643468057424,22242.6632469,-2
1643468057424,22242.6632498,4
1643468057424,22242.6632527,2
1643468057424,22242.6632555,2
1643468057424,22242.6632583,54
1643468057424,22242.6632611,82
1643468057424,22242.663264,47
1643468057424,22242.6632669,37
1643468057457,22242.6632699,35
1643468057457,22242.6632761,28
1643468057457,22242.663279,47
1643468057457,22242.6632818,37
1643468057457,22242.6632847,11
1643468057457,22242.6632878,28
1643468057457,22242.6632906,63
1643468057457,22242.6632934,51
1643468057457,22242.6632962,25
1643468057457,22242.6632991,51
1643468057489,22242.663302,70
1643468057489,22242.6633048,23
1643468057489,22242.6633077,0
1643468057489,22243.3150379,23
1643468057489,22243.3150551,63
1643468057489,22243.3150603,113
1643468057489,22243.3150659,115
1643468057489,22243.3150701,65
1643468057489,22243.3150732,51
1643468057489,22243.3150762,65
1643468057524,22243.3150792,44
1643468057524,22243.3150822,9
1643468057524,22243.3150851,7
1643468057524,22243.315088,42
1643468057524,22243.3150909,65
1643468057524,22243.3150938,11
1643468057524,22243.3150968,-58
1643468057524,22243.3150998,28
1643468057524,22243.3151028,289
1643468057524,22243.3151057,553
1643468057561,22243.3151087,650
1643468057561,22243.3151117,461
1643468057561,22243.3151174,-21
1643468057561,22243.3151205,-388
1643468057561,22243.3151256,-282
1643468057561,22243.3151289,-70
1643468057561,22243.3151338,-77
1643468057561,22243.3151377,-115
1643468057561,22243.3151428,-91
1643468057561,22243.315146,-106
1643468057590,22243.3151508,-122
1643468057590,22243.3151539,-89
1643468057590,22243.3151598,-56
1643468057590,22243.3151626,-54
1643468057590,22243.3151654,-51
1643468057590,22243.3151683,-68
1643468057590,22243.3151713,-120
1643468057590,22243.3151743,-113
1643468057590,22243.3151796,-61
1643468057590,22243.3151827,-47
1643468057624,22243.3151857,-23
1643468057624,22243.315191,-9
1643468057624,22243.315194,-61
1643468057624,22243.315199,-82
1643468057624,22243.315202,-44
1643468057624,22243.3152073,-32
1643468057624,22243.3152104,-49
1643468057624,22243.3152156,-35
1643468057624,22243.3152188,-18
1643468057624,22243.3152237,-37
1643468057656,22243.3152266,-44
1643468057656,22243.3152296,-23
1643468057656,22243.3152346,-47
1643468057656,22243.3152376,-101
1643468057823,22243.3152429,-58
1643468057823,22243.3152461,30
1643468057823,22243.315249,40
1643468057823,22243.3152519,18
1643468057823,22243.3152546,23
1643468057823,22243.3152575,23
1643468057823,22243.3152609,14
1643468057823,22243.3152638,2
1643468057823,22243.3152667,2
1643468057823,22243.3152696,30
1643468057856,22243.3152724,65
1643468057856,22243.3152757,56
1643468057856,22243.3152784,25
1643468057856,22243.3152813,21
1643468057856,22243.3152842,16
1643468057856,22243.315287,16
1643468057856,22243.3153587,54
1643468057856,22243.3153722,73
1643468057856,22243.3153783,49
1643468057856,22243.3153814,61
1643468057890,22243.3153862,106
1643468057890,22243.3153895,110
1643468057890,22243.7185671,82
1643468057890,22243.7185797,61
1643468057890,22243.7185835,56
1643468057890,22243.7185887,44
1643468057890,22243.7185918,21
1643468057890,22243.7185966,16
1643468057890,22243.7185997,25
1643468057890,22243.7186044,23
1643468057923,22243.7186075,21
1643468057923,22243.7186122,16
1643468057923,22243.7186154,11
1643468057923,22243.71862,82
1643468057923,22243.7186233,294
1643468057923,22243.7186284,558
1643468057923,22243.7186314,711
1643468057923,22243.7186355,581
1643468057923,22243.7186385,108
1643468057923,22243.7186434,-348
1643468057957,22243.7186465,-310
1643468057957,22243.7186504,-37
1643468057957,22243.7186535,0
1643468057957,22243.7186575,-51
1643468057957,22243.7186605,-9
1643468057957,22243.7186654,11
1643468057957,22243.7186701,-4
1643468057957,22243.7186729,11
1643468057957,22243.7186758,35
1643468057957,22243.7186786,30
1643468057991,22243.7186814,18
1643468057991,22243.7186852,16
1643468057991,22243.7186883,32
1643468057991,22243.7186913,51
1643468057991,22243.7186954,47
1643468057991,22243.7186984,44
1643468057991,22243.718703,54
1643468057991,22243.7187059,47
1643468057991,22243.7187089,32
1643468057991,22243.7187128,30
1643468058023,22243.7187158,32
1643468058023,22243.7187198,23
1643468058023,22243.7187228,18
1643468058023,22243.7187276,28
1643468058023,22243.7187305,28
1643468058023,22243.7187335,16
1643468058023,22243.7187382,14
1643468058023,22243.7187437,18
1643468058023,22243.7187482,9
1643468058023,22243.7187512,7
1643468058056,22243.7187564,23
1643468058056,22243.7187606,42
1643468058056,22243.7187656,54
1643468058056,22243.7187684,56
1643468058357,22243.7187715,65
1643468058357,22243.7187744,61
1643468058357,22243.7187772,35
1643468058357,22243.71878,37
1643468058357,22243.7187828,63
1643468058357,22243.7187857,63
1643468058357,22243.7187885,65
1643468058357,22243.7187914,82
1643468058357,22243.7187942,70
1643468058357,22243.718797,56
1643468058382,22243.7187999,75
1643468058382,22243.718803,80
1643468058382,22243.7188059,47
1643468058382,22243.7188098,28
1643468058382,22243.7188126,42
1643468058382,22243.7188157,58
1643468058382,22243.7188187,58
1643468058382,22243.7188235,58
1643468058382,22243.7188266,73
1643468058382,22243.7188313,77
1643468058401,22243.7188344,54
1643468058401,22244.2656087,30
1643468058401,22244.2656225,28
1643468058401,22244.2656261,25
1643468058401,22244.2656313,21
1643468058401,22244.2656349,23
1643468058401,22244.265638,23
1643468058401,22244.2656421,11
1643468058401,22244.2656451,14
1643468058401,22244.2656491,96
1643468058424,22244.2656522,325
1643468058424,22244.2656561,633
1643468058424,22244.2656592,831
1643468058424,22244.2656641,730
1643468058424,22244.2656689,179
1643468058424,22244.2656732,-424
1643468058424,22244.265676,-414
1643468058424,22244.2656791,-82
1643468058424,22244.2656844,-40
1643468058424,22244.2656873,-115
1643468058445,22244.2656904,-77
1643468058445,22244.2656944,-63
1643468058445,22244.2656975,-91
1643468058445,22244.2657005,-75
1643468058445,22244.2657035,-51
1643468058445,22244.2657064,-61
1643468058445,22244.2657094,-82
1643468058445,22244.2657124,-84
1643468058445,22244.2657153,-44
1643468058445,22244.2657183,-4
1643468058468,22244.2657238,-9
1643468058468,22244.2657277,-14
1643468058468,22244.2657308,-2
1643468058468,22244.2657338,-30
1643468058468,22244.2657375,-54
1643468058468,22244.2657404,-11
1643468058468,22244.2657447,-2
1643468058468,22244.2657477,-37
1643468058468,22244.2657515,-28
1643468058468,22244.2657545,2
1643468058491,22244.2657596,4
1643468058491,22244.2657627,0
1643468058491,22244.2657667,-9
1643468058491,22244.2657698,-2
1643468058491,22244.2657747,7
1643468058491,22244.2657776,-18
1643468058491,22244.2657806,-30
1643468058491,22244.2657836,9
1643468058491,22244.2657877,32
1643468058491,22244.2657907,11
1643468058512,22244.2657937,4
1643468058512,22244.2657968,14
1643468058512,22244.2658022,44
1643468058512,22244.2658083,108
1643468058868,22244.2660703,101
1643468058868,22244.266191,9
1643468058868,22244.2661998,2
1643468058868,22244.2662032,54
1643468058868,22244.2662073,49
1643468058868,22244.2662105,32
1643468058868,22244.2662136,49
1643468058868,22244.2662175,47
1643468058868,22244.2662206,21
1643468058868,22244.2662244,14
1643468058902,22244.2662274,21
1643468058902,22244.2662305,30
1643468058902,22244.2662344,47
1643468058902,22244.2662374,68
1643468058902,22244.2662426,80
1643468058902,22244.2662457,61
1643468058902,22244.2662489,-4
1643468058902,22244.2662529,-37
1643468058902,22244.2662558,-7
1643468058902,22244.2662587,0
1643468058935,22244.7687685,-11
1643468058935,22244.7687826,-2
1643468058935,22244.7687876,-4
1643468058935,22244.768793,9
1643468058935,22244.7687961,155
1643468058935,22244.7687992,468
1643468058935,22244.7688031,765
1643468058935,22244.7688062,834
1643468058935,22244.7688111,546
1643468058935,22244.7688152,-94
1643468058968,22244.7688193,-482
1643468058968,22244.7688223,-240
1643468058968,22244.7688253,-4
1643468058968,22244.7688284,-82
1643468058968,22244.7688332,-103
1643468058968,22244.7688381,-63
1643468058968,22244.768843,-101
1643468058968,22244.7688474,-98
1643468058968,22244.7688513,-61
1643468058968,22244.7688544,-56
1643468059002,22244.7688582,-56
1643468059002,22244.7688612,-51
1643468059002,22244.7688651,-54
1643468059002,22244.7688681,-56
1643468059002,22244.768873,-61
1643468059002,22244.7688774,-56
1643468059002,22244.7688813,-35
1643468059002,22244.7688843,-23
1643468059002,22244.7688883,-28
1643468059002,22244.7688913,-44
1643468059036,22244.7688952,-63
1643468059036,22244.7688983,-44
1643468059036,22244.7689032,-14
1643468059036,22244.7689078,-7
1643468059036,22244.7689117,-18
1643468059036,22244.7689147,-44
1643468059036,22244.7689199,-49
1643468059036,22244.7689245,-28
1643468059036,22244.7689293,-32
1643468059036,22244.7689322,-49
1643468059068,22244.7689352,-28
1643468059068,22244.7689382,21
1643468059068,22244.7689431,37
1643468059068,22244.768946,11
1643468059068,22244.768949,-4
1643468059068,22244.768954,16
1643468059068,22244.7689586,47
1643468059068,22244.7689638,37
1643468059068,22244.7689669,35
1643468059068,22244.7689708,80
1643468059101,22244.7689738,75
1643468059101,22244.7689768,14
1643468059101,22244.7689809,-2
1643468059101,22244.7689839,25
1643468059468,22244.768988,40
1643468059468,22244.768991,37
1643468059468,22244.7689938,23
1643468059468,22244.7689967,23
1643468059468,22244.7689996,37
1643468059468,22244.7690025,35
1643468059468,22244.7690053,28
1643468059468,22244.7690081,37
1643468059468,22244.769011,30
1643468059468,22244.7690138,11
1643468059502,22244.7690166,16
1643468059502,22244.7690194,14
1643468059502,22244.7690222,0
1643468059502,22244.7690252,-4
1643468059502,22244.7690281,4
1643468059502,22244.7690309,14
1643468059502,22244.7690337,9
1643468059502,22244.7690367,7
1643468059502,22244.7690397,122
1643468059502,22245.3631201,395
1643468059535,22245.3631328,669
1643468059535,22245.3631364,760
1643468059535,22245.3631396,511
1643468059535,22245.3631448,-77
1643468059535,22245.3631491,-452
1643468059535,22245.3631539,-249
1643468059535,22245.3631583,-21
1643468059535,22245.3631631,-77
1643468059535,22245.363166,-91
1643468059535,22245.3631693,-25
1643468059569,22245.3631739,-42
1643468059569,22245.3631769,-82
1643468059569,22245.3631799,-94
1643468059569,22245.3631829,-84
1643468059569,22245.363188,-65
1643468059569,22245.3631925,-40
1643468059569,22245.3631975,-18
1643468059569,22245.3632003,-11
1643468059569,22245.3632034,-14
1643468059569,22245.3632073,-18
1643468059602,22245.3632103,-35
1643468059602,22245.3632144,-44
1643468059602,22245.3632174,-7
1643468059602,22245.3632204,18
1643468059602,22245.3632252,-25
1643468059602,22245.3632281,-40
1643468059602,22245.3632312,0
1643468059602,22245.3632351,7
1643468059602,22245.3632381,14
1643468059602,22245.3632429,37
1643468059634,22245.3632457,-9
1643468059634,22245.3632488,-51
1643468059634,22245.3632528,-18
1643468059634,22245.3632558,-14
1643468059634,22245.3632605,-25
1643468059634,22245.3632634,9
1643468059634,22245.3632664,47
1643468059634,22245.3632713,56
1643468059634,22245.3632741,30
1643468059634,22245.3632772,9
1643468059669,22245.3632823,28
1643468059669,22245.363287,56
1643468059669,22245.3632909,65
1643468059669,22245.3632939,42
1643468059669,22245.3632994,14
1643468059669,22245.3633022,35
1643468059669,22245.3633061,61
1643468059669,22245.3633091,63
1643468059669,22245.3633149,75
1643468059669,22245.3633178,73
1643468059691,22245.3633404,37
1643468059691,22245.3633727,16
1643468059691,22245.3633781,35
1643468059691,22245.363381,73
1643468060045,22245.3633838,87
1643468060045,22245.3633866,80
1643468060045,22245.3633895,70
1643468060045,22245.3633927,44
1643468060045,22245.3633955,4
1643468060045,22245.3634115,16
1643468060045,22245.3634252,49
1643468060045,22245.3634293,21
1643468060045,22245.3634325,-4
1643468060045,22245.3634354,23
1643468060068,22245.3634383,37
1643468060068,22245.3634412,28
1643468060068,22245.363444,65
1643468060068,22245.3634468,230
1643468060068,22245.3634497,541
1643468060068,22245.3634525,789
1643468060068,22245.3634552,727
1643468060068,22245.363458,242
1643468060068,22245.9666567,-334
1643468060068,22245.9666701,-376
1643468060090,22245.9666738,-75
1643468060090,22245.9666791,-14
1643468060090,22245.9666825,-96
1643468060090,22245.9666875,-94
1643468060090,22245.9666906,-70
1643468060090,22245.9666956,-63
1643468060090,22245.9666987,-28
1643468060090,22245.9667045,7
1643468060090,22245.9667076,-28
1643468060090,22245.9667126,-65
1643468060113,22245.9667158,-40
1643468060113,22245.9667207,-18
1643468060113,22245.9667238,-7
1643468060113,22245.9667287,-4
1643468060113,22245.9667319,-44
1643468060113,22245.9667368,-49
1643468060113,22245.9667399,-18
1643468060113,22245.9667453,-11
1643468060113,22245.9667485,23
1643468060113,22245.9667541,49
1643468060137,22245.9667573,-25
1643468060137,22245.9667622,-84
1643468060137,22245.9667653,-4
1643468060137,22245.9667703,56
1643468060137,22245.9667734,-7
1643468060137,22245.9667785,-18
1643468060137,22245.9667817,65
1643468060137,22245.9667866,65
1643468060137,22245.9667897,-30
1643468060137,22245.966795,-21
1643468060169,22245.9667985,75
1643468060169,22245.9668034,73
1643468060169,22245.9668066,16
1643468060169,22245.9668116,7
1643468060169,22245.9668147,14
1643468060169,22245.96682,18
1643468060169,22245.9668231,18
1643468060169,22245.9668281,9
1643468060169,22245.9668312,16
1643468060169,22245.9668363,21
1643468060202,22245.9668394,28
1643468060202,22245.9668444,37
1643468060202,22245.9668476,18
1643468060202,22245.9668524,14
1643468060202,22245.9668555,11
1643468060202,22245.9668603,-2
1643468060202,22245.9668634,4
1643468060202,22245.9668684,25
1643468060202,22245.9668716,40
1643468060202,22245.9668772,47
1643468060235,22245.9668804,49
1643468060235,22245.9668852,42
1643468060235,22245.9668884,30
1643468060235,22245.9668933,28
1643468060602,22245.9668965,21
1643468060602,22245.9668994,7
1643468060602,22245.9669023,0
1643468060602,22245.9669051,7
1643468060602,22245.9669079,25
1643468060602,22245.9669107,18
1643468060602,22245.9669135,11
1643468060602,22245.9669163,139
1643468060602,22245.9669192,457
1643468060602,22245.9669221,784
1643468060635,22245.966925,834
1643468060635,22245.9669278,475
1643468060635,22245.9669307,-75
1643468060635,22245.9669337,-360
1643468060635,22245.9669367,-230
1643468060635,22245.9669397,-49
1643468060635,22245.9669427,-49
1643468060635,22246.5173377,-77
1643468060635,22246.5173592,-25
1643468060635,22246.5173658,4
1643468060669,22246.5173853,-21
1643468060669,22246.517395,-18
1643468060669,22246.5173984,14
1643468060669,22246.5174013,30
1643468060669,22246.5174041,30
1643468060669,22246.517407,9
1643468060669,22246.5174098,-25
1643468060669,22246.5174126,-28
1643468060669,22246.5174154,14
1643468060669,22246.5174183,68
1643468060701,22246.517428,47
1643468060701,22246.5175634,-30
1643468060701,22246.5175716,23
1643468060701,22246.517577,124
1643468060701,22246.5175802,49
1643468060701,22246.5175832,-56
1643468060701,22246.5175871,-35
1643468060701,22246.5175921,-28
1643468060701,22246.5175952,-56
1643468060701,22246.5175982,-40
1643468060734,22246.5176031,-44
1643468060734,22246.5176062,-77
1643468060734,22246.517611,-75
1643468060734,22246.5176143,2
1643468060734,22246.5176191,77
1643468060734,22246.517742,65
1643468060734,22246.5177502,40
1643468060734,22246.5177539,47
1643468060734,22246.5177775,56
1643468060734,22246.5177807,75
1643468060768,22246.5178387,77
1643468060768,22246.5178528,54
1643468060768,22246.5178592,51
1643468060768,22246.5178675,77
1643468060768,22246.5178775,82
1643468060768,22246.5178829,77
1643468060768,22246.5178862,84
1643468060768,22246.5178892,84
1643468060768,22246.5178921,68
1643468060768,22246.5178951,30
1643468060801,22246.5179005,23
1643468060801,22246.5179036,80
1643468060801,22246.5179082,113
1643468060801,22246.5179113,89
1643468060801,22246.5179165,70
1643468060801,22246.5179196,65
1643468060801,22246.5179244,56
1643468060801,22246.5179275,35
1643468060801,22246.5179324,-2
1643468060801,22246.5179356,-9
1643468060837,22246.5179401,25
1643468060837,22246.5179432,44
1643468060837,22246.5179471,18
1643468060837,22246.51795,0
1643468061168,22246.5179529,32
1643468061168,22246.5179559,219
1643468061168,22246.5179587,591
1643468061168,22246.5179615,881
1643468061168,22246.5179645,841
1643468061168,22246.5179674,391
1643468061168,22246.5179702,-252
1643468061168,22246.5179731,-438
1643468061168,22246.5179759,-136
1643468061168,22246.5179787,2
1643468061200,22246.5179817,-63
1643468061200,22246.5179845,-44
1643468061200,22246.5179874,-14
1643468061200,22246.5179903,-37
1643468061200,22246.5179931,-40
1643468061200,22246.5180027,-30
1643468061200,22247.0626538,-23
1643468061200,22247.0626676,0
1643468061200,22247.0626714,14
1643468061200,22247.0626768,4
1643468061234,22247.06268,2
1643468061234,22247.0626849,16
1643468061234,22247.0626881,30
1643468061234,22247.0626932,28
1643468061234,22247.0626963,9
1643468061234,22247.0627011,7
1643468061234,22247.0627042,25
1643468061234,22247.062709,32
1643468061234,22247.062712,25
1643468061234,22247.062717,16
1643468061267,22247.0627201,-9
1643468061267,22247.0627254,-28
1643468061267,22247.0627286,-28
1643468061267,22247.0627336,-25
1643468061267,22247.0627367,-30
1643468061267,22247.0627416,-32
1643468061267,22247.0627447,-37
1643468061267,22247.0627497,-44
1643468061267,22247.0627527,-47
1643468061267,22247.0627576,-28
1643468061290,22247.0627606,-14
1643468061290,22247.062766,-28
1643468061290,22247.0627691,-21
1643468061290,22247.062774,9
1643468061290,22247.0627771,14
1643468061290,22247.0627826,7
1643468061290,22247.0627856,25
1643468061290,22247.0627908,49
1643468061290,22247.062794,37
1643468061290,22247.062799,23
1643468061312,22247.0628027,42
1643468061312,22247.0628078,56
1643468061312,22247.0628109,21
1643468061312,22247.0628158,-9
1643468061312,22247.0628189,21
1643468061312,22247.0628239,37
1643468061312,22247.0628271,25
1643468061312,22247.062832,61
1643468061312,22247.0628351,96
1643468061312,22247.0628403,42
1643468061334,22247.0628435,-16
1643468061334,22247.0628487,-14
1643468061334,22247.0628518,-7
1643468061334,22247.0628572,-2
1643468061334,22247.0628603,18
1643468061334,22247.0628652,28
1643468061334,22247.0628683,11
1643468061334,22247.0628732,-11
1643468061334,22247.0628763,61
1643468061334,22247.0628814,301
1643468061358,22247.0628846,621
1643468061358,22247.0628895,881
1643468061358,22247.0628926,864
1643468061358,22247.0628975,348
1643468061701,22247.0629006,-325
1643468061701,22247.0629038,-414
1643468061701,22247.0629067,-108
1643468061701,22247.0629096,-51
1643468061701,22247.0629125,-134
1643468061701,22247.0629153,-101
1643468061701,22247.0629182,-56
1643468061701,22247.0629211,-70
1643468061701,22247.0629239,-82
1643468061701,22247.0629268,-49
1643468061733,22247.0629751,-18
1643468061733,22247.0629813,-32
1643468061733,22247.0629843,-40
1643468061733,22247.0629872,-16
1643468061733,22247.06299,-9
1643468061733,22247.6178676,-14
1643468061733,22247.6178797,-14
1643468061733,22247.6178831,-11
1643468061733,22247.6178863,9
1643468061733,22247.6178892,51
1643468061769,22247.617892,61
1643468061769,22247.6178949,23
1643468061769,22247.6178977,-7
1643468061769,22247.6179005,11
1643468061769,22247.6179037,25
1643468061769,22247.6179065,-2
1643468061769,22247.6179468,-14
1643468061769,22247.6179618,-25
1643468061769,22247.6179684,-91
1643468061769,22247.6179718,-129
1643468061801,22247.6179767,-75
1643468061801,22247.6179798,-35
1643468061801,22247.6179847,-42
1643468061801,22247.6179877,-28
1643468061801,22247.6179925,-25
1643468061801,22247.6179956,-65
1643468061801,22247.6180004,-65
1643468061801,22247.6180034,-18
1643468061801,22247.6180085,2
1643468061801,22247.6180115,23
1643468061838,22247.6180167,32
1643468061838,22247.6180198,-9
1643468061838,22247.6180246,-23
1643468061838,22247.6180277,0
1643468061838,22247.6180324,0
1643468061838,22247.6180355,-9
1643468061838,22247.6180406,-4
1643468061838,22247.6180435,-4
1643468061838,22247.6180467,7
1643468061838,22247.6180501,37
1643468061868,22247.618055,44
1643468061868,22247.6180581,23
1643468061868,22247.6180635,9
1643468061868,22247.6180665,2
1643468061868,22247.6180717,-18
1643468061868,22247.6181047,-32
1643468061868,22247.6181235,-23
1643468061868,22247.6181307,-35
1643468061868,22247.6181343,-37
1643468061868,22247.6181395,0
1643468061901,22247.6181427,-2
1643468061901,22247.6181479,-9
1643468061901,22247.6181511,136
1643468061901,22247.6181564,442
1643468061901,22247.6181594,704
1643468061901,22247.6181623,775
1643468061901,22247.6181654,525
1643468061901,22247.6181684,-80
1643468061901,22247.6181738,-461
1643468061901,22247.6181768,-242
1643468061935,22247.6181809,-18
1643468061935,22247.6181839,-98
1643468061935,22247.6181899,-127
1643468061935,22247.6181938,-61
1643468062401,22247.6181989,-61
1643468062401,22247.6182022,-75
1643468062401,22247.618205,-44
1643468062401,22247.6182079,-9
1643468062401,22247.6182107,2
1643468062401,22247.6182136,-18
1643468062401,22247.6182164,-40
1643468062401,22247.6182192,-44
1643468062401,22247.618222,-23
1643468062401,22247.6182247,-9
1643468062436,22247.6182275,-9
1643468062436,22247.6182304,-2
1643468062436,22247.6182336,-4
1643468062436,22247.6182364,-7
1643468062436,22248.3189395,9
1643468062436,22248.3189505,30
1643468062436,22248.3189542,35
1643468062436,22248.3189583,21
1643468062436,22248.3189615,25
1643468062436,22248.3189657,44
1643468062468,22248.3189697,23
1643468062468,22248.3189739,-4
1643468062468,22248.318977,-9
1643468062468,22248.3189865,-25
1643468062468,22248.3189901,-30
1643468062468,22248.3190233,-23
1643468062468,22248.3190304,-32
1643468062468,22248.3190337,-18
1643468062468,22248.3190369,14
1643468062468,22248.3190398,4
1643468062501,22248.3190429,-28
1643468062501,22248.319046,-40
1643468062501,22248.3190491,-40
1643468062501,22248.3190522,-32
1643468062501,22248.3190553,-32
1643468062501,22248.3190585,-35
1643468062501,22248.3191874,-7
1643468062501,22248.3191937,11
1643468062501,22248.3191968,-21
1643468062501,22248.3191997,-40
1643468062534,22248.3192026,-11
1643468062534,22248.3192055,2
1643468062534,22248.3192083,-9
1643468062534,22248.3192112,-7
1643468062534,22248.3192141,0
1643468062534,22248.319217,11
1643468062534,22248.3192198,30
1643468062534,22248.3192227,25
1643468062534,22248.3192256,7
1643468062534,22248.3192285,-9
1643468062568,22248.3192313,-18
1643468062568,22248.3192343,-21
1643468062568,22248.3192371,-21
1643468062568,22248.3192399,-25
1643468062568,22248.3192428,-28
1643468062568,22248.3192456,-23
1643468062568,22248.3192485,18
1643468062568,22248.3192514,176
1643468062568,22248.3192543,449
1643468062568,22248.3192576,676
1643468062601,22248.3192607,697
1643468062601,22248.3193146,358
1643468062601,22248.3193206,-226
1643468062601,22248.3193238,-438
1643468062601,22248.3193269,-160
1643468062601,22248.3193298,-16
1643468062601,22248.3193327,-96
1643468062601,22248.3193355,-77
1643468062601,22248.3193384,-21
1643468062601,22248.3193412,-40
1643468062635,22248.3193441,-63
1643468062635,22248.3193552,-56
1643468062635,22248.3193607,-37
1643468062635,22248.3193638,-18
1643468062968,22248.3193668,-2
1643468062968,22248.3193697,9
1643468062968,22248.3193725,11
1643468062968,22248.3193755,18
1643468062968,22248.3193784,9
1643468062968,22248.3193813,-11
1643468062968,22248.3193842,0
1643468062968,22248.3193871,25
1643468062968,22248.31939,21
1643468062968,22248.3193929,4
1643468063002,22248.3193957,2
1643468063002,22248.3193986,30
1643468063002,22248.3194015,75
1643468063002,22248.8624553,77
1643468063002,22248.8624707,47
1643468063002,22248.8624748,30
1643468063002,22248.8624812,21
1643468063002,22248.8624844,14
1643468063002,22248.8624894,30
1643468063002,22248.8624926,44
1643468063035,22248.8624976,11
1643468063035,22248.8625008,-30
1643468063035,22248.8625059,-32
1643468063035,22248.862509,-14
1643468063035,22248.8625138,9
1643468063035,22248.862517,28
1643468063035,22248.8625224,23
1643468063035,22248.8625257,4
1643468063035,22248.8625306,0
1643468063035,22248.862534,14
1643468063067,22248.8625389,40
1643468063067,22248.8625419,49
1643468063067,22248.862547,18
1643468063067,22248.8625505,-2
1643468063067,22248.8625555,32
1643468063067,22248.8625585,58
1643468063067,22248.8625634,9
1643468063067,22248.8625665,-37
1643468063067,22248.8625716,-7
1643468063067,22248.8625747,37
1643468063101,22248.8625796,42
1643468063101,22248.8625828,44
1643468063101,22248.8625882,63
1643468063101,22248.862592,63
1643468063101,22248.8625952,30
1643468063101,22248.8625999,11
1643468063101,22248.8626028,18
1643468063101,22248.8626057,14
1643468063101,22248.8626087,-18
1643468063101,22248.8626117,-40
1643468063135,22248.8626148,-25
1643468063135,22248.8626201,-9
1643468063135,22248.8626238,-28
1643468063135,22248.8626289,-9
1643468063135,22248.8626322,120
1643468063135,22248.8626372,348
1643468063135,22248.8626403,581
1643468063135,22248.8626453,633
1643468063135,22248.8626485,341
1643468063135,22248.8626541,-171
1643468063168,22248.8626572,-398
1643468063168,22248.8626621,-181
1643468063168,22248.8626655,-23
1643468063168,22248.8626705,-77
1643468063168,22248.8626736,-80
1643468063168,22248.8626789,-32
1643468063168,22248.8626821,-40
1643468063168,22248.8626876,-35
1643468063168,22248.8626907,-7
1643468063168,22248.8626961,-7
1643468063201,22248.8626993,-11
1643468063201,22248.8627042,0
1643468063201,22248.8627074,-7
1643468063201,22248.8627123,-9
1643468063458,22248.8627159,25
1643468063458,22248.8627188,49
1643468063458,22248.8627219,35
1643468063458,22248.8627249,49
1643468063458,22248.8627277,77
1643468063458,22248.8627306,49
1643468063458,22248.8627337,35
1643468063458,22248.8627368,63
1643468063458,22248.8627398,58
1643468063458,22248.8627428,51
1643468063479,22248.8627456,68
1643468063479,22248.8627484,63
1643468063479,22249.3681407,32
1643468063479,22249.3681568,16
1643468063479,22249.3681606,40
1643468063479,22249.3681639,65
1643468063479,22249.3681685,56
1643468063479,22249.3681714,44
1643468063479,22249.3681744,42
1643468063479,22249.3681772,42
1643468063501,22249.3681803,44
1643468063501,22249.3681857,61
1643468063501,22249.3681888,54
1643468063501,22249.3681917,32
1643468063501,22249.3681947,51
1643468063501,22249.3681975,73
1643468063501,22249.3682031,49
1643468063501,22249.3682063,35
1643468063501,22249.3682103,63
1643468063501,22249.3682134,73
1643468063527,22249.3682164,58
1643468063527,22249.3682196,58
1643468063527,22249.3682226,61
1643468063527,22249.3682254,58
1643468063527,22249.3682282,70
1643468063527,22249.3682313,75
1643468063527,22249.3682344,75
1643468063527,22249.3682374,89
1643468063527,22249.3682405,101
1643468063527,22249.3682436,87
1643468063550,22249.3682466,56
1643468063550,22249.3682522,32
1643468063550,22249.3682553,14
1643468063550,22249.3682603,4
1643468063550,22249.3682634,35
1643468063550,22249.3682662,51
1643468063550,22249.3682694,21
1643468063550,22249.3682724,2
1643468063550,22249.3682754,9
1643468063550,22249.3682808,28
1643468063570,22249.3682839,108
1643468063570,22249.368289,299
1643468063570,22249.3682921,570
1643468063570,22249.3682973,772
1643468063570,22249.3683006,713
1643468063570,22249.3683056,245
1643468063570,22249.3683088,-329
1643468063570,22249.3683138,-391
1643468063570,22249.368317,-96
1643468063570,22249.3683212,-28
1643468063592,22249.368324,-87
1643468063592,22249.3683271,-47
1643468063592,22249.3683301,-16
1643468063592,22249.3683333,-23
1643468063592,22249.3683363,-14
1643468063592,22249.3683394,-4
1643468063592,22249.3683427,-7
1643468063592,22249.3683476,-9
1643468063592,22249.3683507,-9
1643468063592,22249.368356,-9
1643468063613,22249.3683593,0
1643468063613,22249.3683638,14
1643468063613,22249.3683669,30
1643468063613,22249.36837,32
1643468064147,22249.3683732,35
1643468064147,22249.3683761,51
1643468064147,22249.368379,49
1643468064147,22249.368382,30
1643468064147,22249.3683849,25
1643468064147,22249.3683877,30
1643468064147,22249.3683905,25
1643468064147,22249.3683936,9
1643468064147,22249.3683966,2
1643468064147,22249.3683995,11
1643468064173,22249.3684025,2
1643468064173,22250.0654923,-9
1643468064173,22250.0655057,4
1643468064173,22250.06551,9
1643468064173,22250.0655155,-14
1643468064173,22250.0655186,-25
1643468064173,22250.0655236,-4
1643468064173,22250.0655268,9
1643468064173,22250.0655316,4
1643468064173,22250.0655347,14
1643468064196,22250.0655377,47
1643468064196,22250.0655408,75
1643468064196,22250.0655461,65
1643468064196,22250.0655492,23
1643468064196,22250.0655542,2
1643468064196,22250.0655747,9
1643468064196,22250.0660991,16
1643468064196,22250.0661294,32
1643468064196,22250.0661367,47
1643468064196,22250.0661421,35
1643468064214,22250.0661452,30
1643468064214,22250.0661481,42
1643468064214,22250.066152,25
1643468064214,22250.0661549,-2
1643468064214,22250.066158,7
1643468064214,22250.066161,47
1643468064214,22250.066164,68
1643468064214,22250.0661669,70
1643468064214,22250.0661698,96
1643468064214,22250.0661726,89
1643468064235,22250.0661754,-40
1643468064235,22250.0661784,-115
1643468064235,22250.0661813,-58
1643468064235,22250.0661842,-35
1643468064235,22250.066187,-32
1643468064235,22250.0661899,0
1643468064235,22250.0661928,-7
1643468064235,22250.0661956,-23
1643468064235,22250.0661985,101
1643468064235,22250.0662014,405
1643468064257,22250.0662044,735
1643468064257,22250.0662075,923
1643468064257,22250.0662105,763
1643468064257,22250.0662136,87
1643468064257,22250.0662166,-513
1643468064257,22250.0662197,-374
1643468064257,22250.0662228,-54
1643468064257,22250.0662271,-94
1643468064257,22250.0662299,-134
1643468064257,22250.0662328,-54
1643468064279,22250.0662357,-54
1643468064279,22250.0662388,-56
1643468064279,22250.0662416,-18
1643468064279,22250.0662445,-44
1643468064279,22250.0662473,-54
1643468064279,22250.0662501,-4
1643468064279,22250.066253,2
1643468064279,22250.0662563,-2
1643468064279,22250.0662598,28
1643468064279,22250.0662629,37
1643468064301,22250.0662659,14
1643468064301,22250.0662691,14
1643468064301,22250.0662745,21
1643468064301,22250.0662776,2
1643468064461,22250.0662807,0
1643468064461,22250.0662837,9
1643468064461,22250.0662867,-9
1643468064461,22250.0662896,-21
1643468064461,22250.0662926,2
1643468064461,22250.0662954,35
1643468064461,22250.0662983,35
1643468064461,22250.0663012,-2
1643468064461,22250.0663041,-23
1643468064461,22250.066307,-16
1643468064493,22250.3711094,-21
1643468064493,22250.3711225,-14
1643468064493,22250.371127,25
1643468064493,22250.3711324,21
1643468064493,22250.3711383,-18
1643468064493,22250.3711435,-16
1643468064493,22250.3711467,9
1643468064493,22250.3711508,11
1643468064493,22250.3711537,14
1643468064493,22250.3711566,14
1643468064529,22250.3711594,28
1643468064529,22250.3711625,42
1643468064529,22250.3711655,25
1643468064529,22250.3711686,7
1643468064529,22250.3711717,18
1643468064529,22250.3712191,44
1643468064529,22250.3712648,51
1643468064529,22250.371526,40
1643468064529,22250.3715389,16
1643468064529,22250.3715438,-28
1643468064558,22250.371547,-51
1643468064558,22250.37155,-14
1643468064558,22250.371553,16
1643468064558,22250.3715559,18
