unixTime,lslTime,ECG
1643464631832,18817.2670518,-30
1643464631832,18817.2670548,-11
1643464631832,18817.2670576,-9
1643464631832,18817.2670605,-14
1643464631832,18817.2670635,-7
1643464631832,18817.2670662,-7
1643464631832,18817.2670691,-9
1643464631832,18817.2670719,-4
1643464631832,18817.2670748,0
1643464631832,18817.2670776,-2
1643464631852,18817.2670804,21
1643464631852,18817.2670833,197
1643464631852,18817.2670862,633
1643464631852,18817.267089,1215
1643464631852,18817.2670918,1496
1643464631852,18817.267095,998
1643464631852,18817.2670983,174
1643464631852,18817.2671012,-68
1643464631852,18817.2671041,51
1643464631852,18817.2671069,-28
1643464631887,18817.2671098,-101
1643464631887,18817.2671127,-44
1643464631887,18817.2671155,-44
1643464631887,18817.2671184,-73
1643464631887,18817.2671212,-44
1643464631887,18817.267124,-18
1643464631887,18817.2671269,-11
1643464631887,18817.2671297,-4
1643464631887,18817.2671326,4
1643464631887,18817.2671354,16
1643464631917,18817.2671382,30
1643464631917,18817.2671412,44
1643464631917,18817.2671441,63
1643464631917,18817.2671472,89
1643464631917,18817.26715,103
1643464631917,18817.267153,110
1643464631917,18817.267156,131
1643464631917,18817.2671591,153
1643464631917,18817.2671619,153
1643464631917,18817.267165,148
1643464631951,18817.2671677,148
1643464631951,18817.2671705,141
1643464631951,18817.2671733,120
1643464631951,18817.2671762,87
1643464631951,18817.267179,40
1643464631951,18817.2671819,-4
1643464631951,18817.2671848,-47
1643464631951,18817.2671876,-80
1643464631951,18817.770086,-94
1643464631951,18817.7701,-101
1643464631984,18817.7701054,-103
1643464631984,18817.7701112,-101
1643464631984,18817.7701157,-103
1643464631984,18817.770121,-110
1643464631984,18817.7701249,-117
1643464631984,18817.7701311,-124
1643464631984,18817.7701342,-117
1643464631984,18817.7701389,-106
1643464631984,18817.7701421,-98
1643464631984,18817.7701472,-96
1643464632018,18817.7701501,-103
1643464632018,18817.7701533,-108
1643464632018,18817.7701584,-101
1643464632018,18817.7701615,-94
1643464632018,18817.7701664,-94
1643464632018,18817.7701703,-96
1643464632018,18817.7701751,-87
1643464632018,18817.7701785,-75
1643464632018,18817.7701838,-75
1643464632018,18817.770187,-73
1643464632052,18817.7701922,-65
1643464632052,18817.7701953,-68
1643464632052,18817.7702003,-65
1643464632052,18817.7702035,-58
1643464632385,18817.7702087,-49
1643464632385,18817.7702119,-47
1643464632385,18817.7702148,-51
1643464632385,18817.7702176,-54
1643464632385,18817.7702204,-42
1643464632385,18817.7702233,-35
1643464632385,18817.7702262,-32
1643464632385,18817.7702291,-28
1643464632385,18817.770232,-25
1643464632385,18817.7702348,-30
1643464632418,18817.7702376,-28
1643464632418,18817.7702405,-23
1643464632418,18817.7702434,-21
1643464632418,18817.7702462,-14
1643464632418,18817.7702491,-14
1643464632418,18817.7702519,-23
1643464632418,18817.7702548,-28
1643464632418,18817.7702576,-28
1643464632418,18817.7702605,-21
1643464632418,18817.7702636,-2
1643464632450,18817.7702666,14
1643464632450,18817.7702695,25
1643464632450,18817.7702724,44
1643464632450,18817.7702753,51
1643464632450,18817.7702822,32
1643464632450,18817.7702852,14
1643464632450,18817.7702889,16
1643464632450,18817.7702932,18
1643464632450,18817.7702964,16
1643464632450,18817.7703014,25
1643464632485,18817.7703046,35
1643464632485,18817.7703096,32
1643464632485,18817.7703125,30
1643464632485,18817.7703156,28
1643464632485,18817.770319,25
1643464632485,18817.7703219,30
1643464632485,18817.7703249,117
1643464632485,18817.7703279,395
1643464632485,18817.7703314,895
1643464632485,18817.7703366,1394
1643464632518,18817.7703399,1335
1643464632518,18817.7703448,579
1643464632518,18817.7703479,0
1643464632518,18817.7703529,32
1643464632518,18817.7703561,73
1643464632518,18817.7703609,-63
1643464632518,18817.7703641,-73
1643464632518,18818.3197698,-21
1643464632518,18818.3197826,-44
1643464632518,18818.3197873,-51
1643464632551,18818.3197924,-28
1643464632551,18818.3197955,-35
1643464632551,18818.3197999,-58
1643464632551,18818.319803,-49
1643464632551,18818.3198078,-21
1643464632551,18818.3198107,-7
1643464632551,18818.3198137,-9
1643464632551,18818.3198189,7
1643464632551,18818.3198224,40
1643464632551,18818.3198254,58
1643464632585,18818.3198305,68
1643464632585,18818.3198337,84
1643464632585,18818.3198384,101
1643464632585,18818.3198432,98
1643464632585,18818.3198481,96
1643464632585,18818.319855,108
1643464632585,18818.3198595,113
1643464632585,18818.3198624,98
1643464632585,18818.3198654,56
1643464632585,18818.3198683,7
1643464632618,18818.3198712,-35
1643464632618,18818.319874,-73
1643464632618,18818.3198769,-103
1643464632618,18818.3198797,-113
1643464633024,18818.3198826,-115
1643464633024,18818.3198854,-139
1643464633024,18818.3198882,-143
1643464633024,18818.3198911,-122
1643464633024,18818.319894,-108
1643464633024,18818.3198968,-101
1643464633024,18818.3198997,-98
1643464633024,18818.3199025,-106
1643464633024,18818.3199054,-96
1643464633024,18818.3199082,-68
1643464633078,18818.319911,-58
1643464633078,18818.3199138,-58
1643464633078,18818.3199166,-63
1643464633078,18818.3199195,-75
1643464633078,18818.3199223,-63
1643464633078,18818.3199252,-44
1643464633078,18818.319928,-28
1643464633078,18818.319931,0
1643464633078,18818.3199339,-2
1643464633078,18818.3199367,-42
1643464633102,18818.3199396,-63
1643464633102,18818.3199424,-47
1643464633102,18818.3199453,-21
1643464633102,18818.3199481,-11
1643464633102,18818.3199514,-16
1643464633102,18818.3199543,-16
1643464633102,18818.3199575,-11
1643464633102,18818.3199604,-14
1643464633102,18818.3199633,-9
1643464633102,18818.3199668,-7
1643464633122,18818.3199699,-14
1643464633122,18818.3199728,-16
1643464633122,18818.3199756,-16
1643464633122,18818.3199793,-4
1643464633122,18818.3199822,9
1643464633122,18818.3199851,4
1643464633122,18818.319988,-4
1643464633122,18818.3199909,-7
1643464633122,18818.3199938,11
1643464633122,18818.3199967,32
1643464633141,18818.3199996,21
1643464633141,18818.3200025,-4
1643464633141,18818.3200054,-9
1643464633141,18818.3200083,-7
1643464633141,18818.3200111,-14
1643464633141,18818.320014,-14
1643464633141,18818.9672913,-4
1643464633141,18818.9673157,4
1643464633141,18818.9673247,11
1643464633141,18818.9673328,7
1643464633162,18818.9673407,11
1643464633162,18818.9673485,23
1643464633162,18818.9673565,9
1643464633162,18818.9673643,-2
1643464633162,18818.9673721,9
1643464633162,18818.9673799,0
1643464633162,18818.9673878,-16
1643464633162,18818.9673958,-4
1643464633162,18818.9674037,2
1643464633162,18818.9674114,-7
1643464633189,18818.9674193,-7
1643464633189,18818.9674271,-2
1643464633189,18818.9674351,-4
1643464633189,18818.9674428,-7
1643464633189,18818.9674508,94
1643464633189,18818.9674587,398
1643464633189,18818.9674667,876
1643464633189,18818.9674745,1298
1643464633189,18818.9674824,1156
1643464633189,18818.9674902,428
1643464633215,18818.9674982,-49
1643464633215,18818.9675061,11
1643464633215,18818.9675139,37
1643464633215,18818.9675222,-68
1643464633596,18818.9676334,-70
1643464633596,18818.9676373,-49
1643464633596,18818.9676404,-75
1643464633596,18818.9676433,-68
1643464633596,18818.9676463,-40
1643464633596,18818.967651,-30
1643464633596,18818.9676543,-21
1643464633596,18818.9676708,-9
1643464633596,18818.9676867,-9
1643464633596,18818.9677074,-4
1643464633629,18818.9677265,25
1643464633629,18818.9677324,51
1643464633629,18818.9677361,61
1643464633629,18818.9677415,75
1643464633629,18818.9677448,101
1643464633629,18818.96775,122
1643464633629,18818.9677546,131
1643464633629,18818.9677598,146
1643464633629,18818.967763,157
1643464633629,18818.9677684,160
1643464633665,18818.9677716,153
1643464633665,18818.9677767,127
1643464633665,18818.9677799,96
1643464633665,18818.9677849,61
1643464633665,18818.9677881,7
1643464633665,18818.9677931,-44
1643464633665,18818.9677963,-84
1643464633665,18818.9678013,-115
1643464633665,18818.9678044,-124
1643464633665,18818.9678094,-106
1643464633696,18818.9678419,-96
1643464633696,18818.9679237,-94
1643464633696,18818.9680301,-84
1643464633696,18818.9681498,-80
1643464633696,18818.9681607,-89
1643464633696,18818.9681666,-103
1643464633696,18818.968172,-103
1643464633696,18818.968175,-87
1643464633696,18818.9681783,-80
1643464633696,18818.9681834,-80
1643464633732,18818.968188,-73
1643464633732,18818.9681913,-70
1643464633732,18818.9681945,-58
1643464633732,18818.9681996,-40
1643464633732,18818.9682027,-44
1643464633732,18819.51981,-58
1643464633732,18819.5198227,-49
1643464633732,18819.5198263,-32
1643464633732,18819.5198315,-25
1643464633732,18819.5198353,-21
1643464633762,18819.5198401,-14
1643464633762,18819.519843,-14
1643464633762,18819.519846,-21
1643464633762,18819.519849,-32
1643464633762,18819.5198521,-42
1643464633762,18819.519856,-32
1643464633762,18819.519859,-21
1643464633762,18819.5198629,-25
1643464633762,18819.5198659,-42
1643464633762,18819.5198698,-56
1643464633796,18819.5198729,-56
1643464633796,18819.5198769,-51
1643464633796,18819.5198799,-44
1643464633796,18819.519884,-40
1643464633796,18819.519887,-40
1643464633796,18819.5198899,-30
1643464633796,18819.5198929,-4
1643464633796,18819.519897,14
1643464633796,18819.5199023,14
1643464633796,18819.5199064,14
1643464633830,18819.5199093,4
1643464633830,18819.5199124,-25
1643464633830,18819.5199154,-37
1643464633830,18819.5199184,-21
1643464634120,18819.5199214,-11
1643464634120,18819.5199243,-16
1643464634120,18819.5199272,-11
1643464634120,18819.5199302,0
1643464634120,18819.519933,0
1643464634120,18819.5199359,-7
1643464634120,18819.5199388,-7
1643464634120,18819.5199416,-18
1643464634120,18819.5199444,-25
1643464634120,18819.5199473,89
1643464634143,18819.5199502,409
1643464634143,18819.5199531,864
1643464634143,18819.519956,1199
1643464634143,18819.5199589,977
1643464634143,18819.5199617,306
1643464634143,18819.5199645,-70
1643464634143,18819.5199673,2
1643464634143,18819.5199702,21
1643464634143,18819.519973,-77
1643464634143,18819.5199759,-77
1643464634166,18819.5199787,-49
1643464634166,18819.5199815,-68
1643464634166,18819.5199843,-61
1643464634166,18819.5199871,-40
1643464634166,18819.5199899,-35
1643464634166,18819.5199927,-21
1643464634166,18819.5199955,2
1643464634166,18819.5199983,4
1643464634166,18819.5200012,9
1643464634166,18819.5200041,32
1643464634189,18819.520007,47
1643464634189,18819.5200098,58
1643464634189,18819.5200129,89
1643464634189,18819.5200157,117
1643464634189,18819.5200186,139
1643464634189,18819.5200215,162
1643464634189,18819.5200245,181
1643464634189,18819.5200283,186
1643464634189,18819.5200311,186
1643464634189,18819.520034,176
1643464634213,18819.5200369,157
1643464634213,18819.5200397,122
1643464634213,18819.5200426,63
1643464634213,18819.5200455,-7
1643464634213,18820.0702378,-63
1643464634213,18820.0702529,-98
1643464634213,18820.0702566,-127
1643464634213,18820.0702599,-148
1643464634213,18820.0702642,-148
1643464634213,18820.0702674,-134
1643464634236,18820.0702726,-131
1643464634236,18820.0702756,-134
1643464634236,18820.0702788,-113
1643464634236,18820.0702839,-101
1643464634236,18820.0702882,-106
1643464634236,18820.0702932,-106
1643464634236,18820.0702979,-110
1643464634236,18820.070303,-134
1643464634236,18820.0703078,-146
1643464634236,18820.0703128,-134
1643464634257,18820.0703181,-124
1643464634257,18820.0703231,-117
1643464634257,18820.0703262,-106
1643464634257,18820.0703314,-101
1643464634257,18820.0703352,-98
1643464634257,18820.0703384,-84
1643464634257,18820.0703427,-65
1643464634257,18820.0703459,-54
1643464634257,18820.0703509,-51
1643464634257,18820.070354,-51
1643464634280,18820.0703571,-47
1643464634280,18820.0703613,-42
1643464634280,18820.0703644,-37
1643464634280,18820.0703686,-28
1643464634720,18820.0703719,-23
1643464634720,18820.0703749,-25
1643464634720,18820.070378,-25
1643464634720,18820.070381,-25
1643464634720,18820.0703839,-21
1643464634720,18820.0703868,-25
1643464634720,18820.0703903,-40
1643464634720,18820.0703933,-49
1643464634720,18820.0703962,-44
1643464634720,18820.0703994,-47
1643464634746,18820.0704024,-49
1643464634746,18820.0704059,-32
1643464634746,18820.0704089,-14
1643464634746,18820.0704118,-9
1643464634746,18820.0704148,9
1643464634746,18820.0704178,18
1643464634746,18820.0704208,-14
1643464634746,18820.0704237,-40
1643464634746,18820.0704269,-25
1643464634746,18820.0704298,-18
1643464634772,18820.070433,-23
1643464634772,18820.070436,-23
1643464634772,18820.070439,-32
1643464634772,18820.0704422,-37
1643464634772,18820.0704453,-28
1643464634772,18820.0704485,-25
1643464634772,18820.0704531,-40
1643464634772,18820.0704571,-49
1643464634772,18820.0704622,51
1643464634772,18820.0704655,384
1643464634799,18820.0704707,925
1643464634799,18820.0704738,1387
1643464634799,18820.070477,1227
1643464634799,18820.0704811,419
1643464634799,18820.0704862,-141
1643464634799,18820.0704894,-82
1643464634799,18820.0704926,-14
1643464634799,18820.0704976,-120
1643464634799,18820.0705024,-120
1643464634799,18820.0705079,-77
1643464634833,18820.0705111,-98
1643464634833,18820.0705143,-108
1643464634833,18820.0705186,-82
1643464634833,18820.6673283,-61
1643464634833,18820.6673418,-49
1643464634833,18820.6673453,-40
1643464634833,18820.6673484,-21
1643464634833,18820.6673515,0
1643464634833,18820.6673545,14
1643464634833,18820.6673575,35
1643464634866,18820.6673604,70
1643464634866,18820.6673634,91
1643464634866,18820.6673663,110
1643464634866,18820.6673692,148
1643464634866,18820.6673721,171
1643464634866,18820.6673749,160
1643464634866,18820.6673778,160
1643464634866,18820.6673807,179
1643464634866,18820.6673835,179
1643464634866,18820.6673864,153
1643464634899,18820.6673893,103
1643464634899,18820.6673921,28
1643464634899,18820.667395,-44
1643464634899,18820.6673979,-89
1643464634899,18820.6674007,-127
1643464634899,18820.6674036,-160
1643464634899,18820.6674065,-174
1643464634899,18820.6674094,-169
1643464634899,18820.6674123,-167
1643464634899,18820.6674151,-160
1643464634933,18820.667418,-143
1643464634933,18820.6674209,-129
1643464634933,18820.6674238,-129
1643464634933,18820.6674266,-120
1643464635336,18820.6674296,-110
1643464635336,18820.6674324,-110
1643464635336,18820.6674353,-108
1643464635336,18820.6674385,-96
1643464635336,18820.6674413,-82
1643464635336,18820.6674441,-75
1643464635336,18820.667447,-73
1643464635336,18820.6674498,-65
1643464635336,18820.6674526,-47
1643464635336,18820.6674555,-37
1643464635368,18820.6674585,-54
1643464635368,18820.6674614,-58
1643464635368,18820.6674642,-42
1643464635368,18820.667467,-47
1643464635368,18820.6674703,-54
1643464635368,18820.6674732,-40
1643464635368,18820.6674761,-32
1643464635368,18820.667479,-32
1643464635368,18820.6674818,-21
1643464635368,18820.6674848,-21
1643464635400,18820.6674879,-35
1643464635400,18820.6674909,-32
1643464635400,18820.6674937,-14
1643464635400,18820.6674966,-18
1643464635400,18820.6674994,-35
1643464635400,18820.6675023,-25
1643464635400,18820.667505,-4
1643464635400,18820.6675079,9
1643464635400,18820.6675108,23
1643464635400,18820.6675138,18
1643464635434,18820.6675167,-4
1643464635434,18820.6675196,-11
1643464635434,18820.6675224,-2
1643464635434,18820.6675253,2
1643464635434,18820.6675284,0
1643464635434,18820.6675313,-7
1643464635434,18820.6675342,-9
1643464635434,18820.6675371,0
1643464635434,18820.6675402,7
1643464635434,18820.6675433,4
1643464635468,18820.6675461,-14
1643464635468,18820.6675493,-30
1643464635468,18821.2699921,84
1643464635468,18821.2700056,478
1643464635468,18821.2700092,1107
1643464635468,18821.2700123,1597
1643464635468,18821.2700153,1333
1643464635468,18821.2700182,398
1643464635468,18821.2700213,-122
1643464635468,18821.2700244,-7
1643464635500,18821.2700274,-7
1643464635500,18821.2700304,-148
1643464635500,18821.2700333,-136
1643464635500,18821.2700362,-113
1643464635500,18821.2700391,-131
1643464635500,18821.2700421,-113
1643464635500,18821.2700451,-103
1643464635500,18821.270048,-110
1643464635500,18821.270051,-96
1643464635500,18821.2700539,-77
1643464635535,18821.2700569,-61
1643464635535,18821.2700598,-42
1643464635535,18821.2700628,-21
1643464635535,18821.2700658,4
1643464635535,18821.2700688,37
1643464635535,18821.2700718,58
1643464635535,18821.2700747,77
1643464635535,18821.2700777,110
1643464635535,18821.2700815,141
1643464635535,18821.2700844,153
1643464635568,18821.2700873,160
1643464635568,18821.2700902,164
1643464635568,18821.2700931,150
1643464635568,18821.270096,117
1643464635834,18821.2700992,68
1643464635834,18821.2701021,4
1643464635834,18821.270105,-56
1643464635834,18821.2701079,-101
1643464635834,18821.2701108,-127
1643464635834,18821.2701137,-143
1643464635834,18821.2701166,-153
1643464635834,18821.2701195,-157
1643464635834,18821.2701224,-148
1643464635834,18821.2701253,-131
1643464635867,18821.2701282,-129
1643464635867,18821.2701311,-127
1643464635867,18821.270134,-110
1643464635867,18821.2701369,-101
1643464635867,18821.2701399,-106
1643464635867,18821.2701428,-98
1643464635867,18821.2701457,-82
1643464635867,18821.2701486,-75
1643464635867,18821.2701515,-65
1643464635867,18821.2701544,-56
1643464635900,18821.2701573,-49
1643464635900,18821.2701601,-40
1643464635900,18821.2701631,-35
1643464635900,18821.2701659,-40
1643464635900,18821.2701689,-51
1643464635900,18821.2701718,-51
1643464635900,18821.2701748,-44
1643464635900,18821.2701777,-42
1643464635900,18821.2701806,-37
1643464635900,18821.2701835,-30
1643464635934,18821.2701864,-30
1643464635934,18821.2701893,-25
1643464635934,18821.2701924,-23
1643464635934,18821.2701954,-30
1643464635934,18821.2701988,-40
1643464635934,18821.2702016,-32
1643464635934,18821.2702048,-30
1643464635934,18821.2702076,-37
1643464635934,18821.2702106,-40
1643464635934,18821.2702135,-37
1643464635967,18821.2702165,-32
1643464635967,18821.7703483,-28
1643464635967,18821.7703619,-11
1643464635967,18821.7703656,14
1643464635967,18821.7703689,35
1643464635967,18821.7703745,35
1643464635967,18821.7703794,32
1643464635967,18821.7703845,16
1643464635967,18821.7703892,-11
1643464635967,18821.7703942,-14
1643464636000,18821.7703982,4
1643464636000,18821.7704031,7
1643464636000,18821.7704063,2
1643464636000,18821.7704113,0
1643464636000,18821.7704143,2
1643464636000,18821.7704175,9
1643464636000,18821.7704225,11
1643464636000,18821.7704273,2
1643464636000,18821.7704322,-9
1643464636000,18821.7704367,51
1643464636035,18821.7704416,332
1643464636035,18821.770445,895
1643464636035,18821.7704499,1486
1643464636035,18821.7704542,1455
1643464636035,18821.7704593,591
1643464636035,18821.7704624,-106
1643464636035,18821.7704656,-73
1643464636035,18821.7704706,-9
1643464636035,18821.7704737,-160
1643464636035,18821.7704779,-169
1643464636071,18821.7704825,-113
1643464636071,18821.7704856,-127
1643464636071,18821.7704908,-117
1643464636071,18821.7704954,-87
1643464636370,18821.7705004,-91
1643464636370,18821.7705043,-94
1643464636370,18821.7705072,-68
1643464636370,18821.7705102,-54
1643464636370,18821.7705132,-58
1643464636370,18821.7705162,-37
1643464636370,18821.7705191,-7
1643464636370,18821.7705222,9
1643464636370,18821.7705251,35
1643464636370,18821.7705281,70
1643464636403,18821.770531,96
1643464636403,18821.7705339,122
1643464636403,18821.7705369,146
1643464636403,18821.7705398,143
1643464636403,18821.7705431,136
1643464636403,18821.7705735,146
1643464636403,18821.7705785,141
1643464636403,18821.7705816,89
1643464636403,18821.7705859,16
1643464636403,18821.7705889,-40
1643464636437,18821.7705922,-82
1643464636437,18821.7706325,-136
1643464636437,18821.7706378,-169
1643464636437,18821.7706413,-148
1643464636437,18821.7706458,-131
1643464636437,18821.7706488,-143
1643464636437,18821.7706518,-134
1643464636437,18821.7706548,-108
1643464636437,18821.7706578,-106
1643464636437,18821.7706635,-101
1643464636469,18821.7706667,-87
1643464636469,18821.7706715,-80
1643464636469,18821.7706747,-70
1643464636469,18821.7706795,-65
1643464636469,18821.7706833,-87
1643464636469,18821.7706881,-94
1643464636469,18821.7706912,-68
1643464636469,18821.770696,-49
1643464636469,18821.770699,-51
1643464636469,18821.7707038,-47
1643464636503,18822.3202353,-40
1643464636503,18822.3202473,-35
1643464636503,18822.3202532,-30
1643464636503,18822.3202574,-25
1643464636503,18822.3202604,-21
1643464636503,18822.3202635,-11
1643464636503,18822.3202676,-9
1643464636503,18822.3202707,-11
1643464636503,18822.320277,-14
1643464636503,18822.3202799,-9
1643464636536,18822.3202838,2
1643464636536,18822.3202875,-2
1643464636536,18822.3202904,-21
1643464636536,18822.3202934,-37
1643464636536,18822.3202966,-47
1643464636536,18822.3202997,-49
1643464636536,18822.3203027,-47
1643464636536,18822.3203056,-44
1643464636536,18822.3203086,-35
1643464636536,18822.3203116,-28
1643464636570,18822.3203146,-30
1643464636570,18822.3203175,-40
1643464636570,18822.3203204,-51
1643464636570,18822.3203232,-47
1643464636570,18822.3203261,-32
1643464636570,18822.320329,-25
1643464636570,18822.3203318,-32
1643464636570,18822.3203346,-32
1643464636570,18822.3203375,-23
1643464636570,18822.3203403,-23
1643464636603,18822.3203432,-23
1643464636603,18822.3203461,-11
1643464636603,18822.320349,-9
1643464636603,18822.3203518,-16
1643464636936,18822.3203546,-14
1643464636936,18822.3203575,-2
1643464636936,18822.3203603,-2
1643464636936,18822.3203631,-11
1643464636936,18822.320366,-23
1643464636936,18822.3203688,-28
1643464636936,18822.3203716,-18
1643464636936,18822.3203745,-4
1643464636936,18822.3203776,9
1643464636936,18822.3203805,11
1643464636972,18822.3203833,25
1643464636972,18822.3203862,42
1643464636972,18822.320389,23
1643464636972,18822.3203919,-9
1643464636972,18822.3203948,-21
1643464636972,18822.3203976,-11
1643464636972,18822.3204005,-4
1643464636972,18822.3204136,-2
1643464636972,18822.3204184,-4
1643464636972,18822.3204214,-7
1643464637002,18822.3204243,0
1643464637002,18822.3204272,0
1643464637002,18822.32043,0
1643464637002,18822.3204329,0
1643464637002,18822.3204358,-2
1643464637002,18822.3204391,68
1643464637002,18822.3204421,351
1643464637002,18822.3204451,904
1643464637002,18822.3204481,1465
1643464637002,18822.3204527,1404
1643464637034,18822.3204574,565
1643464637034,18822.3204603,-89
1643464637034,18822.3204634,-40
1643464637034,18822.3204664,25
1643464637034,18822.3204693,-122
1643464637034,18822.3204725,-136
1643464637034,18822.3204757,-89
1643464637034,18822.3204786,-115
1643464637034,18822.3204817,-115
1643464637034,18822.8698566,-84
1643464637070,18822.8698688,-87
1643464637070,18822.8698723,-84
1643464637070,18822.8698755,-54
1643464637070,18822.8698805,-32
1643464637070,18822.8698849,-23
1643464637070,18822.869888,-2
1643464637070,18822.8698932,21
1643464637070,18822.8698964,40
1643464637070,18822.8699014,63
1643464637070,18822.8699061,96
1643464637105,18822.8699109,122
1643464637105,18822.8699156,131
1643464637105,18822.8699204,129
1643464637105,18822.8699235,127
1643464637105,18822.8699269,124
1643464637105,18822.869932,124
1643464637105,18822.8699364,115
1643464637105,18822.8699412,75
1643464637105,18822.8699459,16
1643464637105,18822.86995,-40
1643464637136,18822.8699532,-87
1643464637136,18822.869958,-124
1643464637136,18822.8699624,-150
1643464637136,18822.8699671,-157
1643464637136,18822.8699715,-155
1643464637136,18822.8699763,-160
1643464637136,18822.8699793,-162
1643464637136,18822.8699823,-153
1643464637136,18822.8699872,-146
1643464637136,18822.8699915,-143
1643464637170,18822.8699955,-134
1643464637170,18822.8699986,-124
1643464637170,18822.8700038,-113
1643464637170,18822.8700075,-103
1643464637484,18822.8700125,-94
1643464637484,18822.8700156,-87
1643464637484,18822.8700185,-80
1643464637484,18822.8700216,-75
1643464637484,18822.8700244,-70
1643464637484,18822.8700273,-61
1643464637484,18822.8700301,-54
1643464637484,18822.8700329,-44
1643464637484,18822.8700358,-42
1643464637484,18822.8700387,-49
1643464637510,18822.8700416,-54
1643464637510,18822.8700444,-49
1643464637510,18822.8700474,-42
1643464637510,18822.8700502,-35
1643464637510,18822.8700531,-35
1643464637510,18822.8700559,-44
1643464637510,18822.8700589,-54
1643464637510,18822.870062,-51
1643464637510,18822.8700671,-44
1643464637510,18822.8700708,-42
1643464637544,18822.8700747,-44
1643464637544,18822.8700779,-42
1643464637544,18822.8700827,-37
1643464637544,18822.8700861,-32
1643464637544,18822.8700892,-32
1643464637544,18822.8700932,-30
1643464637544,18822.8700963,-25
1643464637544,18822.8701012,-18
1643464637544,18822.8701045,-16
1643464637544,18822.8701086,-23
1643464637576,18822.8701117,-30
1643464637576,18822.8701166,-35
1643464637576,18822.8701198,-37
1643464637576,18822.8701246,-37
1643464637576,18822.8701278,-30
1643464637576,18822.8701327,-25
1643464637576,18822.8701381,-30
1643464637576,18822.8701427,-35
1643464637576,18823.419832,-30
1643464637576,18823.419845,-18
1643464637610,18823.4198489,-16
1643464637610,18823.4198541,-35
1643464637610,18823.4198574,-61
1643464637610,18823.4198622,-63
1643464637610,18823.4198657,-37
1643464637610,18823.4198707,-18
1643464637610,18823.419874,2
1643464637610,18823.4198789,23
1643464637610,18823.419882,-4
1643464637610,18823.4198869,-65
1643464637644,18823.41989,-68
1643464637644,18823.4198932,-37
1643464637644,18823.419898,-44
1643464637644,18823.4199011,-54
1643464637644,18823.4199366,-42
1643464637644,18823.4199422,-35
1643464637644,18823.4199455,-37
1643464637644,18823.4199505,-49
1643464637644,18823.4199538,-65
1643464637644,18823.4199579,-75
1643464637686,18823.4199611,-61
1643464637686,18823.4199662,82
1643464637686,18823.41997,504
1643464637686,18823.4199748,1161
1643464637686,18823.419978,1609
1643464637686,18823.4199811,1194
1643464637686,18823.4199854,212
1643464637686,18823.4199884,-186
1643464637686,18823.4199913,-11
1643464637686,18823.4199942,-40
1643464637719,18823.4199973,-157
1643464637719,18823.4200005,-103
1643464637719,18823.4200037,-70
1643464637719,18823.4200093,-103
1643464638020,18823.4200125,-91
1643464638020,18823.4200156,-58
1643464638020,18823.4200185,-49
1643464638020,18823.4200215,-51
1643464638020,18823.4200245,-35
1643464638020,18823.4200274,-4
1643464638020,18823.4200303,14
1643464638020,18823.4200332,37
1643464638020,18823.4200361,70
1643464638020,18823.4200391,87
1643464638055,18823.420042,98
1643464638055,18823.420045,148
1643464638055,18823.4200479,195
1643464638055,18823.4200508,212
1643464638055,18823.4200537,235
1643464638055,18823.4200567,261
1643464638055,18823.4200597,261
1643464638055,18823.4200629,230
1643464638055,18823.4200659,186
1643464638055,18823.4200691,136
1643464638093,18823.4200744,73
1643464638093,18823.4200775,0
1643464638093,18823.4200807,-61
1643464638093,18823.4200848,-103
1643464638093,18823.420088,-136
1643464638093,18823.4200921,-148
1643464638093,18823.4200953,-141
1643464638093,18823.4201002,-139
1643464638093,18823.4201041,-131
1643464638093,18823.4201084,-106
1643464638123,18823.4201118,-91
1643464638123,18823.4201167,-106
1643464638123,18823.4201199,-117
1643464638123,18823.420124,-101
1643464638123,18823.4201274,-82
1643464638123,18823.4201305,-63
1643464638123,18823.4201347,-56
1643464638123,18823.9702778,-77
1643464638123,18823.9702907,-89
1643464638123,18823.9702943,-73
1643464638155,18823.9702975,-56
1643464638155,18823.9703005,-54
1643464638155,18823.970304,-40
1643464638155,18823.9703069,-18
1643464638155,18823.9703098,-23
1643464638155,18823.9703126,-47
1643464638155,18823.9703155,-65
1643464638155,18823.9703184,-73
1643464638155,18823.9703221,-61
1643464638155,18823.9703253,-63
1643464638189,18823.9703283,-73
1643464638189,18823.9703313,-61
1643464638189,18823.9703357,-51
1643464638189,18823.970341,-56
1643464638189,18823.9703454,-61
1643464638189,18823.9703483,-61
1643464638189,18823.9703513,-65
1643464638189,18823.9703541,-56
1643464638189,18823.970357,-42
1643464638189,18823.9703599,-32
1643464638222,18823.9703629,-32
1643464638222,18823.9703657,-44
1643464638222,18823.9703686,-44
1643464638222,18823.9703715,-30
1643464638222,18823.9703744,-23
1643464638222,18823.9703773,-35
1643464638222,18823.9703802,-61
1643464638222,18823.970383,-84
1643464638222,18823.9703859,-89
1643464638222,18823.9703888,-54
1643464638255,18823.9703917,-14
1643464638255,18823.9703946,-21
1643464638255,18823.9703975,-25
1643464638255,18823.9704008,7
1643464638597,18823.9704038,7
1643464638597,18823.9704067,-23
1643464638597,18823.9704097,-21
1643464638597,18823.9704125,-9
1643464638597,18823.9704159,-16
1643464638597,18823.9704188,-16
1643464638597,18823.9704216,-11
1643464638597,18823.9704248,-21
1643464638597,18823.9704277,-21
1643464638597,18823.9704307,0
1643464638630,18823.9704337,2
1643464638630,18823.9704365,-37
1643464638630,18823.9704394,-56
1643464638630,18823.9704432,80
1643464638630,18823.9704463,511
1643464638630,18823.9704492,1201
1643464638630,18823.9704522,1741
1643464638630,18823.9704551,1441
1643464638630,18823.970458,405
1643464638630,18823.9704609,-153
1643464638668,18823.9704638,-9
1643464638668,18823.9704667,-7
1643464638668,18823.9704697,-143
1643464638668,18823.9704727,-91
1643464638668,18823.970476,-42
1643464638668,18823.9704789,-91
1643464638668,18823.9704818,-98
1643464638668,18823.9704847,-65
1643464638668,18823.9704879,-61
1643464638668,18823.9704908,-63
1643464638704,18823.9704937,-40
1643464638704,18823.9704966,-14
1643464638704,18823.9704996,2
1643464638704,18823.9705026,18
1643464638704,18823.9705056,40
1643464638704,18823.9705086,56
1643464638704,18824.5198515,77
1643464638704,18824.5198638,110
1643464638704,18824.5198673,146
1643464638704,18824.5198705,181
1643464638739,18824.5198747,200
1643464638739,18824.5198777,202
1643464638739,18824.5198823,212
1643464638739,18824.5198853,207
1643464638739,18824.5198882,157
1643464638739,18824.5198911,91
1643464638739,18824.5198939,18
1643464638739,18824.5198969,-61
1643464638739,18824.5198998,-108
1643464638739,18824.5199026,-127
1643464638774,18824.5199054,-143
1643464638774,18824.5199083,-153
1643464638774,18824.5199111,-148
1643464638774,18824.5199139,-129
1643464638774,18824.519917,-136
1643464638774,18824.5199199,-157
1643464638774,18824.5199227,-131
1643464638774,18824.5199255,-96
1643464638774,18824.5199283,-101
1643464638774,18824.5199311,-117
1643464638811,18824.5199339,-103
1643464638811,18824.5199366,-75
1643464638811,18824.5199394,-73
1643464638811,18824.5199422,-89
1643464638811,18824.519945,-87
1643464638811,18824.5199477,-70
1643464638811,18824.5199505,-68
1643464638811,18824.5199533,-68
1643464638811,18824.5199561,-51
1643464638811,18824.5199589,-42
1643464638844,18824.5199621,-44
1643464638844,18824.5199649,-47
1643464638844,18824.5199677,-51
1643464638844,18824.5199705,-51
1643464639120,18824.5199733,-49
1643464639120,18824.5199761,-49
1643464639120,18824.5199789,-49
1643464639120,18824.5199817,-35
1643464639120,18824.5199845,-23
1643464639120,18824.5199873,-30
1643464639120,18824.5199901,-42
1643464639120,18824.519993,-49
1643464639120,18824.5199958,-47
1643464639120,18824.5199986,-32
1643464639140,18824.5200021,-30
1643464639140,18824.5200049,-40
1643464639140,18824.5200079,-30
1643464639140,18824.5200114,-16
1643464639140,18824.5200142,-32
1643464639140,18824.520017,-58
1643464639140,18824.5200199,-49
1643464639140,18824.5200227,-35
1643464639140,18824.5200256,-40
1643464639140,18824.5200296,-32
1643464639163,18824.5200328,-35
1643464639163,18824.5200361,-56
1643464639163,18824.5200392,-51
1643464639163,18824.520042,-32
1643464639163,18824.5200448,-30
1643464639163,18824.5200476,-16
1643464639163,18824.5200505,14
1643464639163,18824.5200533,37
1643464639163,18824.5200562,28
1643464639163,18824.5200591,-18
1643464639206,18824.5200619,-47
1643464639206,18824.5200648,-28
1643464639206,18824.5200682,-11
1643464639206,18824.520071,-4
1643464639206,18824.5200739,7
1643464639206,18825.0703547,11
1643464639206,18825.0703746,7
1643464639206,18825.0703788,0
1643464639206,18825.0703821,-2
1643464639206,18825.0703865,-4
1643464639252,18825.0703908,-23
1643464639252,18825.070394,4
1643464639252,18825.0703996,261
1643464639252,18825.0704028,826
1643464639252,18825.0704077,1451
1643464639252,18825.0704109,1524
1643464639252,18825.0704159,725
1643464639252,18825.0704192,-70
1643464639252,18825.070424,-96
1643464639252,18825.0704273,32
1643464639272,18825.0704323,-108
1643464639272,18825.0704355,-162
1643464639272,18825.0704405,-98
1643464639272,18825.0704438,-91
1643464639272,18825.0704488,-89
1643464639272,18825.0704521,-65
1643464639272,18825.070455,-56
1643464639272,18825.0704579,-40
1643464639272,18825.0704692,-14
1643464639272,18825.0704894,-11
1643464639296,18825.0704942,-25
1643464639296,18825.0704976,0
1643464639296,18825.0705008,58
1643464639296,18825.0705037,80
1643464639296,18825.0705066,87
1643464639296,18825.0705096,129
1643464639296,18825.0705125,164
1643464639296,18825.0705154,167
1643464639296,18825.0705184,169
1643464639296,18825.0705213,195
1643464639329,18825.0705433,237
1643464639329,18825.0706498,247
1643464639329,18825.0706576,204
1643464639329,18825.0706607,131
1643464639799,18825.0706636,44
1643464639799,18825.0706665,-7
1643464639799,18825.0706694,-16
1643464639799,18825.0706723,-47
1643464639799,18825.0706751,-87
1643464639799,18825.0706779,-98
1643464639799,18825.0706808,-120
1643464639799,18825.0706836,-134
1643464639799,18825.0706864,-96
1643464639799,18825.0706893,-61
1643464639832,18825.0706927,-68
1643464639832,18825.0706956,-87
1643464639832,18825.0706984,-80
1643464639832,18825.0707013,-65
1643464639832,18825.0707042,-73
1643464639832,18825.070707,-89
1643464639832,18825.0707099,-103
1643464639832,18825.0707128,-110
1643464639832,18825.0707156,-96
1643464639832,18825.0707185,-73
1643464639863,18825.0707213,-58
1643464639863,18825.0707242,-56
1643464639863,18825.0707271,-35
1643464639863,18825.07073,-18
1643464639863,18825.0707329,-37
1643464639863,18825.0707357,-61
1643464639863,18825.0707386,-68
1643464639863,18825.0707415,-63
1643464639863,18825.0707444,-54
1643464639863,18825.0707473,-49
1643464639896,18825.0707502,-49
1643464639896,18825.0707531,-54
1643464639896,18825.0707561,-70
1643464639896,18825.0707593,-77
1643464639896,18825.7145048,-47
1643464639896,18825.7145187,-11
1643464639896,18825.7145225,-21
1643464639896,18825.7145279,-47
1643464639896,18825.714531,-70
1643464639896,18825.7145358,-75
1643464639930,18825.7145388,-56
1643464639930,18825.7145438,-37
1643464639930,18825.7145468,-49
1643464639930,18825.7145516,-70
1643464639930,18825.7145551,-80
1643464639930,18825.7145598,-84
1643464639930,18825.7145628,-80
1643464639930,18825.7145676,-68
1643464639930,18825.7145708,-70
1643464639930,18825.7145757,-84
1643464639964,18825.7145788,-68
1643464639964,18825.7145836,-25
1643464639964,18825.7145866,-25
1643464639964,18825.7145916,-42
1643464639964,18825.7145947,-23
1643464639964,18825.7145997,11
1643464639964,18825.7146027,42
1643464639964,18825.7146076,44
1643464639964,18825.7146107,28
1643464639964,18825.7146156,4
1643464639997,18825.7146187,-30
1643464639997,18825.7146235,-63
1643464639997,18825.7146269,-56
1643464639997,18825.7146322,-9
1643464639997,18825.7146352,32
1643464639997,18825.7146391,23
1643464639997,18825.7146423,-9
1643464639997,18825.7146471,2
1643464639997,18825.7146503,32
1643464639997,18825.7146542,23
1643464640032,18825.7146573,42
1643464640032,18825.7146621,254
1643464640032,18825.7146656,732
1643464640032,18825.7146686,1312
1643464640317,18825.7146734,1481
1643464640317,18825.7146774,838
1643464640317,18825.7146802,32
1643464640317,18825.7146832,-87
1643464640317,18825.714686,47
1643464640317,18825.714689,-58
1643464640317,18825.7146918,-117
1643464640317,18825.7146949,-61
1643464640317,18825.7146978,-65
1643464640317,18825.7147006,-94
1643464640344,18825.7147034,-82
1643464640344,18825.7147063,-44
1643464640344,18825.7147092,-16
1643464640344,18825.714712,-11
1643464640344,18825.7147149,-16
1643464640344,18825.7147177,-2
1643464640344,18825.7147206,16
1643464640344,18825.7147234,44
1643464640344,18825.7147263,94
1643464640344,18825.7147309,136
1643464640366,18825.714734,136
1643464640366,18825.7147371,134
1643464640366,18825.7147401,167
1643464640366,18825.7147444,197
1643464640366,18825.7147485,204
1643464640366,18825.7147522,212
1643464640366,18825.7147561,195
1643464640366,18825.7147792,162
1643464640366,18825.7147873,167
1643464640366,18825.7147917,153
1643464640387,18825.7147972,61
1643464640387,18825.7148004,-28
1643464640387,18825.7148052,-82
1643464640387,18826.2657141,-127
1643464640387,18826.2657288,-148
1643464640387,18826.2657326,-129
1643464640387,18826.2657381,-117
1643464640387,18826.2657412,-124
1643464640387,18826.2657462,-141
1643464640387,18826.2657494,-150
1643464640411,18826.2657544,-129
1643464640411,18826.2657575,-110
1643464640411,18826.2657624,-143
1643464640411,18826.2657657,-174
1643464640411,18826.2657706,-148
1643464640411,18826.2657742,-127
1643464640411,18826.2657793,-143
1643464640411,18826.2657825,-136
1643464640411,18826.2657874,-117
1643464640411,18826.2657906,-117
1643464640434,18826.2657958,-106
1643464640434,18826.265799,-75
1643464640434,18826.2658041,-63
1643464640434,18826.2658073,-89
1643464640434,18826.2658119,-122
1643464640434,18826.2658166,-113
1643464640434,18826.2658222,-84
1643464640434,18826.2658252,-89
1643464640434,18826.2658307,-96
1643464640434,18826.2658339,-82
1643464640456,18826.2658382,-70
1643464640456,18826.2658413,-68
1643464640456,18826.2658445,-77
1643464640456,18826.2658482,-89
1643464640456,18826.2658514,-73
1643464640456,18826.2658566,-44
1643464640456,18826.2658598,-37
1643464640456,18826.2658653,-42
1643464640456,18826.2658685,-61
1643464640456,18826.2658715,-94
1643464640485,18826.2658745,-108
1643464640485,18826.2658775,-103
1643464640485,18826.2658805,-108
1643464640485,18826.2658834,-136
1643464640831,18826.2658863,-150
1643464640831,18826.2658892,-101
1643464640831,18826.2658921,-54
1643464640831,18826.2658951,-65
1643464640831,18826.2658981,-56
1643464640831,18826.2659011,2
1643464640831,18826.2659043,18
1643464640831,18826.2659073,-23
1643464640831,18826.2659104,-54
1643464640831,18826.2659133,-42
1643464640865,18826.2659162,-21
1643464640865,18826.2659191,-32
1643464640865,18826.2659221,-49
1643464640865,18826.265925,-35
1643464640865,18826.2659279,-18
1643464640865,18826.2659309,-30
1643464640865,18826.2659338,-30
1643464640865,18826.2659368,-9
1643464640865,18826.2659397,-7
1643464640865,18826.2659427,-23
1643464640898,18826.2659456,77
1643464640898,18826.2659487,497
1643464640898,18826.2659517,1168
1643464640898,18826.2659547,1658
1643464640898,18826.2659577,1366
1643464640898,18826.2659606,386
1643464640898,18826.2659636,-176
1643464640898,18826.2659669,-51
1643464640898,18826.2659698,2
1643464640898,18826.2659757,-91
1643464640932,18826.2659789,-68
1643464640932,18826.2659818,-44
1643464640932,18826.7711956,-75
1643464640932,18826.7712067,-63
1643464640932,18826.7712113,-47
1643464640932,18826.7712147,-49
1643464640932,18826.7712212,-11
1643464640932,18826.7712245,25
1643464640932,18826.7712296,14
1643464640932,18826.7712329,14
1643464640966,18826.771238,40
1643464640966,18826.7712413,42
1643464640966,18826.7712462,47
1643464640966,18826.7712494,77
1643464640966,18826.7712543,115
1643464640966,18826.7712575,160
1643464640966,18826.7712628,193
1643464640966,18826.7712661,197
1643464640966,18826.7712712,219
1643464640966,18826.7712744,266
1643464640999,18826.7712793,287
1643464640999,18826.7712825,249
1643464640999,18826.7712875,169
1643464640999,18826.7712908,84
1643464640999,18826.7712958,21
1643464640999,18826.771299,-30
1643464640999,18826.7713039,-87
1643464640999,18826.7713071,-131
1643464640999,18826.7713121,-134
1643464640999,18826.7713153,-113
1643464641031,18826.7713207,-106
1643464641031,18826.7713238,-117
1643464641031,18826.7713288,-124
1643464641031,18826.771332,-108
1643464641031,18826.7713368,-94
1643464641031,18826.77134,-75
1643464641031,18826.771345,-68
1643464641031,18826.7713481,-84
1643464641031,18826.7713531,-82
1643464641031,18826.7713562,-47
1643464641067,18826.7713612,-28
1643464641067,18826.7713643,-54
1643464641067,18826.7713691,-73
1643464641067,18826.7713722,-35
1643464641468,18826.7713771,-9
1643464641468,18826.7713802,-54
1643464641468,18826.771383,-63
1643464641468,18826.771386,-4
1643464641468,18826.7713889,11
1643464641468,18826.7713918,-9
1643464641468,18826.7713947,-9
1643464641468,18826.7713975,-23
1643464641468,18826.7714004,-54
1643464641468,18826.7714033,-37
1643464641501,18826.7714065,2
1643464641501,18826.7714094,-7
1643464641501,18826.7714122,-40
1643464641501,18826.771415,-54
1643464641501,18826.7714179,-68
1643464641501,18826.7714208,-82
1643464641501,18826.7714237,-68
1643464641501,18826.7714265,-40
1643464641501,18826.7714294,-44
1643464641501,18826.7714323,-47
1643464641532,18826.7714355,-14
1643464641532,18826.7714384,-2
1643464641532,18826.7714413,-2
1643464641532,18826.7714442,32
1643464641532,18826.7714471,35
1643464641532,18826.77145,-21
1643464641532,18826.771453,-42
1643464641532,18826.7714559,-35
1643464641532,18826.7714588,-68
1643464641532,18826.7714617,-75
1643464641566,18826.7714647,-44
1643464641566,18827.4176224,-35
1643464641566,18827.4176362,-25
1643464641566,18827.4176398,-30
1643464641566,18827.4176454,-58
1643464641566,18827.4176486,-68
1643464641566,18827.4176535,-65
1643464641566,18827.4176567,40
1643464641566,18827.4176622,412
1643464641566,18827.4176654,1010
1643464641600,18827.4176704,1500
1643464641600,18827.4176735,1291
1643464641600,18827.4176785,372
1643464641600,18827.4176816,-214
1643464641600,18827.4176866,-127
1643464641600,18827.4176897,-89
1643464641600,18827.4176946,-212
1643464641600,18827.4176978,-197
1643464641600,18827.4177027,-155
1643464641600,18827.4177058,-150
1643464641633,18827.4177109,-98
1643464641633,18827.417714,-49
1643464641633,18827.4177189,-54
1643464641633,18827.4177221,-63
1643464641633,18827.4177271,-37
1643464641633,18827.4177302,-14
1643464641633,18827.4177352,-7
1643464641633,18827.4177384,9
1643464641633,18827.4177434,16
1643464641633,18827.4177465,-2
1643464641667,18827.4177515,-16
1643464641667,18827.417755,37
1643464641667,18827.41776,127
1643464641667,18827.4177632,155
1643464641667,18827.4177683,160
1643464641667,18827.4177714,214
1643464641667,18827.4177744,249
1643464641667,18827.4177775,212
1643464641667,18827.4177833,176
1643464641667,18827.4177863,134
1643464641706,18827.4177914,18
1643464641706,18827.4177945,-101
1643464641706,18827.4177996,-146
1643464641706,18827.4178027,-146
1643464642002,18827.4178057,-141
1643464642002,18827.4178088,-129
1643464642002,18827.4178117,-124
1643464642002,18827.417815,-134
1643464642002,18827.4178182,-141
1643464642002,18827.4178218,-141
1643464642002,18827.417826,-124
1643464642002,18827.4178288,-63
1643464642002,18827.4178317,-35
1643464642002,18827.4178346,-84
1643464642033,18827.4178375,-122
1643464642033,18827.4178404,-96
1643464642033,18827.4178433,-70
1643464642033,18827.4178462,-80
1643464642033,18827.4178491,-73
1643464642033,18827.417852,-54
1643464642033,18827.4178548,-56
1643464642033,18827.4178577,-49
1643464642033,18827.4178605,-11
1643464642033,18827.4178634,-11
1643464642067,18827.4178662,-54
1643464642067,18827.4178691,-49
1643464642067,18827.4178722,16
1643464642067,18827.4178754,37
1643464642067,18827.4178784,-25
1643464642067,18827.4178818,-63
1643464642067,18827.4178868,-44
1643464642067,18827.4178899,-49
1643464642067,18827.4178949,-63
1643464642067,18827.417898,-61
1643464642102,18827.9198714,-49
1643464642102,18827.9198863,-30
1643464642102,18827.91989,-30
1643464642102,18827.919894,-35
1643464642102,18827.9198972,-18
1643464642102,18827.919902,-11
1643464642102,18827.9199051,-4
1643464642102,18827.9199091,23
1643464642102,18827.9199122,44
1643464642102,18827.9199161,25
1643464642135,18827.9199191,-14
1643464642135,18827.9199239,-40
1643464642135,18827.9199269,-25
1643464642135,18827.91993,4
1643464642135,18827.919934,2
1643464642135,18827.919937,-37
1643464642135,18827.919941,-56
1643464642135,18827.919944,-30
1643464642135,18827.919948,-25
1643464642135,18827.9199512,-73
1643464642170,18827.9199559,-84
1643464642170,18827.9199588,-23
1643464642170,18827.9199619,103
1643464642170,18827.9199659,376
1643464642170,18827.9199689,883
1643464642170,18827.9199736,1349
1643464642170,18827.9199765,1152
1643464642170,18827.9199794,320
1643464642170,18827.9199844,-171
1643464642170,18827.9199873,-70
1643464642201,18827.9199904,-47
1643464642201,18827.9199951,-160
1643464642201,18827.9199998,-122
1643464642201,18827.9200046,-91
1643464642201,18827.9200077,-146
1643464642201,18827.9200107,-131
1643464642201,18827.9200147,-80
1643464642201,18827.9200179,-77
1643464642201,18827.9200253,-70
1643464642201,18827.9200283,-16
1643464642235,18827.9200313,16
1643464642235,18827.9200342,4
1643464642235,18827.9200604,-2
1643464642235,18827.9200914,21
1643464642567,18827.9201044,47
1643464642567,18827.9201083,68
1643464642567,18827.9201115,94
1643464642567,18827.9201144,115
1643464642567,18827.9201173,129
1643464642567,18827.9201205,153
1643464642567,18827.9201235,186
1643464642567,18827.9201263,193
1643464642567,18827.9201292,162
1643464642567,18827.9201321,150
1643464642602,18827.9201664,134
1643464642602,18827.9201718,70
1643464642602,18827.9201856,0
1643464642602,18827.9201894,-44
1643464642602,18827.9201924,-94
1643464642602,18827.920196,-169
1643464642602,18827.920199,-204
1643464642602,18827.9202021,-164
1643464642602,18827.9202075,-131
1643464642602,18827.9202106,-139
1643464642634,18827.9202154,-141
1643464642634,18827.9202185,-148
1643464642634,18827.9202232,-136
1643464642634,18827.9202264,-75
1643464642634,18827.920231,-51
1643464642634,18827.9202341,-82
1643464642634,18827.9202388,-87
1643464642634,18827.9202419,-65
1643464642634,18827.9202466,-42
1643464642634,18828.5151149,-47
1643464642668,18828.5151328,-70
1643464642668,18828.515137,-68
1643464642668,18828.5151408,-63
1643464642668,18828.5151437,-70
1643464642668,18828.5151465,-68
1643464642668,18828.5151493,-44
1643464642668,18828.5151521,-28
1643464642668,18828.5151549,-37
1643464642668,18828.5151577,-42
1643464642668,18828.5153324,-49
1643464642702,18828.5153472,-82
1643464642702,18828.5153518,-110
1643464642702,18828.5153551,-98
1643464642702,18828.5153581,-65
1643464642702,18828.5153609,-65
1643464642702,18828.5153637,-94
1643464642702,18828.5153664,-98
1643464642702,18828.5153692,-56
1643464642702,18828.5153719,-35
1643464642702,18828.5153747,-80
1643464642734,18828.5153774,-108
1643464642734,18828.5153801,-82
1643464642734,18828.5153829,-61
1643464642734,18828.5153856,-37
1643464642734,18828.5153883,-9
1643464642734,18828.515391,-18
1643464642734,18828.5153937,-28
1643464642734,18828.5153964,-14
1643464642734,18828.5153992,-14
1643464642734,18828.5154019,-11
1643464642768,18828.5154048,14
1643464642768,18828.5154076,0
1643464642768,18828.5154104,-44
1643464642768,18828.5154131,-40
1643464642768,18828.5154159,-16
1643464642768,18828.5154186,-25
1643464642768,18828.5154213,-51
1643464642768,18828.5154241,14
1643464642768,18828.5154269,336
1643464642768,18828.5154297,970
1643464642802,18828.5154324,1590
1643464642802,18828.5154352,1477
1643464642802,18828.515438,548
1643464642802,18828.5154409,-89
1643464643234,18828.5154437,9
1643464643234,18828.5154465,51
1643464643234,18828.5154492,-113
1643464643234,18828.515452,-106
1643464643234,18828.5154548,-75
1643464643234,18828.5154575,-131
1643464643234,18828.5154603,-131
1643464643234,18828.5154632,-98
1643464643234,18828.515466,-108
1643464643234,18828.5154688,-87
1643464643267,18828.5154715,-35
1643464643267,18828.5154744,-2
1643464643267,18828.5154771,0
1643464643267,18828.5154801,-2
1643464643267,18828.5154829,32
1643464643267,18828.5154858,89
1643464643267,18828.5154888,106
1643464643267,18828.5154919,75
1643464643267,18828.5154947,65
1643464643267,18828.5154976,113
1643464643300,18828.5155004,179
1643464643300,18828.5155032,219
1643464643300,18828.515506,209
1643464643300,18828.5155089,169
1643464643300,18828.5155116,141
1643464643300,18828.5155144,122
1643464643300,18828.5155173,58
1643464643300,18828.5155206,-30
1643464643300,18829.1642125,-96
1643464643300,18829.1642244,-124
1643464643335,18829.1642289,-120
1643464643335,18829.1642339,-129
1643464643335,18829.1642386,-171
1643464643335,18829.1642433,-195
1643464643335,18829.1642479,-176
1643464643335,18829.1642526,-186
1643464643335,18829.164257,-228
1643464643335,18829.1642619,-237
1643464643335,18829.1642651,-183
1643464643335,18829.16427,-131
1643464643373,18829.1642731,-131
1643464643373,18829.1642779,-150
1643464643373,18829.164281,-157
1643464643373,18829.1642841,-155
1643464643373,18829.1642889,-127
1643464643373,18829.1642918,-82
1643464643373,18829.164295,-63
1643464643373,18829.1642997,-68
1643464643373,18829.1643042,-65
1643464643373,18829.1643081,-51
1643464643407,18829.1643112,-54
1643464643407,18829.1643151,-73
1643464643407,18829.1643182,-42
1643464643407,18829.164323,0
1643464643407,18829.1643276,-40
1643464643407,18829.1643324,-101
1643464643407,18829.1643354,-89
1643464643407,18829.1643384,-63
1643464643407,18829.1643425,-68
1643464643407,18829.1643456,-47
1643464643438,18829.1643505,-11
1643464643438,18829.1643537,2
1643464643438,18829.1643586,7
1643464643438,18829.1643617,14
1643464643438,18829.1643668,11
1643464643438,18829.1643702,4
1643464643438,18829.1643732,-14
1643464643438,18829.1643773,-7
1643464643438,18829.1643808,9
1643464643438,18829.1643856,-16
1643464643468,18829.1643901,-47
1643464643468,18829.1643949,-28
1643464643468,18829.1643994,7
1643464643468,18829.1644042,32
1643464643701,18829.1644085,35
1643464643701,18829.1644115,2
1643464643701,18829.1644144,-37
1643464643701,18829.1644173,-23
1643464643701,18829.1644202,153
1643464643701,18829.164423,617
1643464643701,18829.1644259,1305
1643464643701,18829.1644287,1771
1643464643701,18829.1644316,1366
1643464643701,18829.1644344,327
1643464643734,18829.1644373,-155
1643464643734,18829.1644406,14
1643464643734,18829.164444,21
1643464643734,18829.164447,-117
1643464643734,18829.1644514,-110
1643464643734,18829.1644544,-77
1643464643734,18829.1644595,-75
1643464643734,18829.164464,-58
1643464643734,18829.164469,-32
1643464643734,18829.1644727,-9
1643464643767,18829.1644775,-18
1643464643767,18829.1644815,-11
1643464643767,18829.1645392,14
1643464643767,18829.1645445,-14
1643464643767,18829.1645495,-35
1643464643767,18829.1645525,37
1643464643767,18829.1645587,101
1643464643767,18829.619998,89
1643464643767,18829.6200107,75
1643464643767,18829.6200142,129
1643464643801,18829.6200173,200
1643464643801,18829.6200203,214
1643464643801,18829.6200347,193
1643464643801,18829.6200501,195
1643464643801,18829.6200805,200
1643464643801,18829.6200989,162
1643464643801,18829.6201071,84
1643464643801,18829.6201104,21
1643464643801,18829.6201145,2
1643464643801,18829.6201176,-28
1643464643835,18829.6201226,-106
1643464643835,18829.6201256,-143
1643464643835,18829.6201286,-124
1643464643835,18829.6201328,-141
1643464643835,18829.6201358,-169
1643464643835,18829.6201397,-153
1643464643835,18829.6201427,-141
1643464643835,18829.6201456,-160
1643464643835,18829.6201485,-193
1643464643835,18829.6201515,-179
1643464643868,18829.6201556,-120
1643464643868,18829.6201585,-108
1643464643868,18829.6201614,-143
1643464643868,18829.6201643,-160
1643464643868,18829.6201682,-122
1643464643868,18829.6201712,-73
1643464643868,18829.6201742,-70
1643464643868,18829.6201771,-110
1643464643868,18829.6201801,-136
1643464643868,18829.6201831,-124
1643464643900,18829.620186,-101
1643464643900,18829.620189,-68
1643464643900,18829.6201938,-51
1643464643900,18829.6201966,-77
1643464643900,18829.6202004,-84
1643464643900,18829.6202046,-54
1643464643900,18829.6202075,-51
1643464643900,18829.6202115,-80
1643464643900,18829.6202144,-110
1643464643900,18829.6202192,-124
1643464643934,18829.6202221,-84
1643464643934,18829.6202251,-28
1643464643934,18829.6202281,-32
1643464643934,18829.620231,-56
1643464644537,18829.620234,-37
1643464644537,18829.6202368,-18
1643464644537,18829.6202396,-42
1643464644537,18829.6202424,-73
1643464644537,18829.6202452,-65
1643464644537,18829.6202479,-28
1643464644537,18829.6202507,9
1643464644537,18829.6202536,21
1643464644537,18829.6202564,-35
1643464644537,18829.6202591,-98
1643464644567,18829.6202619,-63
1643464644567,18829.6202646,-40
1643464644567,18829.6202674,-117
1643464644567,18829.6202702,-101
1643464644567,18829.620273,216
1643464644567,18829.6202758,784
1643464644567,18829.6202786,1394
1643464644567,18829.6202814,1533
1643464644567,18829.6202851,786
1643464644567,18829.6202882,-56
1643464644602,18829.6202912,-120
1643464644602,18829.6202942,42
1643464644602,18829.6202985,-75
1643464644602,18829.6203015,-136
1643464644602,18829.6203054,-77
1643464644602,18829.6203094,-82
1643464644602,18830.4664045,-94
1643464644602,18830.4664161,-75
1643464644602,18830.4664196,-63
1643464644602,18830.4664228,-63
1643464644636,18830.4664259,-73
1643464644636,18830.4664296,-61
1643464644636,18830.4664328,0
1643464644636,18830.4664371,51
1643464644636,18830.466441,37
1643464644636,18830.4664441,9
1643464644636,18830.4664506,37
1643464644636,18830.4664545,73
1643464644636,18830.4664593,51
1643464644636,18830.4664622,30
1643464644667,18830.466465,80
1643464644667,18830.4664681,153
1643464644667,18830.4664721,179
1643464644667,18830.4664752,171
1643464644667,18830.4664804,155
1643464644667,18830.4664834,110
1643464644667,18830.4664873,35
1643464644667,18830.4664904,-51
1643464644667,18830.4664951,-120
1643464644667,18830.466498,-169
1643464644699,18830.4665011,-197
1643464644699,18830.4665058,-197
1643464644699,18830.4665099,-169
1643464644699,18830.4665152,-148
1643464644699,18830.4665182,-148
1643464644699,18830.4665212,-129
1643464644699,18830.4665261,-98
1643464644699,18830.4665298,-96
1643464644699,18830.4665346,-91
1643464644699,18830.4665394,-63
1643464644734,18830.466544,-89
1643464644734,18830.4665469,-169
1643464644734,18830.46655,-200
1643464644734,18830.466553,-164
1643464644734,18830.4665582,-124
1643464644734,18830.4665613,-98
1643464644734,18830.4665662,-80
1643464644734,18830.4665691,-94
1643464644734,18830.4665722,-120
1643464644734,18830.4665763,-106
1643464644768,18830.4665795,-63
1643464644768,18830.4665826,-54
1643464644768,18830.4665855,-75
1643464644768,18830.4665883,-75
1643464645066,18830.4665911,-73
1643464645066,18830.4665939,-82
1643464645066,18830.4665967,-89
1643464645066,18830.4665995,-117
1643464645066,18830.4666027,-131
1643464645066,18830.4666059,-80
1643464645066,18830.4666381,-23
1643464645066,18830.4666455,-7
1643464645066,18830.4666487,-9
1643464645066,18830.4666516,-14
1643464645099,18830.4666544,-30
1643464645099,18830.4666572,-54
1643464645099,18830.46666,-47
1643464645099,18830.4666656,-35
1643464645099,18830.46748,-56
1643464645099,18830.4674968,-80
1643464645099,18830.467501,-63
1643464645099,18830.4675041,-49
1643464645099,18830.4675071,-47
1643464645099,18830.4675098,-44
1643464645133,18830.4675126,-61
1643464645133,18830.4675154,-65
1643464645133,18830.4675183,70
1643464645133,18830.467521,414
1643464645133,18830.4675238,942
1643464645133,18831.015708,1364
1643464645133,18831.0157247,1097
1643464645133,18831.0157291,273
1643464645133,18831.0157323,-113
1643464645133,18831.0157352,32
1643464645167,18831.0157382,11
1643464645167,18831.0157411,-131
1643464645167,18831.015744,-120
1643464645167,18831.015747,-91
1643464645167,18831.0157499,-120
1643464645167,18831.0157527,-110
1643464645167,18831.0157556,-87
1643464645167,18831.0157585,-65
1643464645167,18831.0157613,-14
1643464645167,18831.0157642,25
1643464645201,18831.0157671,0
1643464645201,18831.01577,-30
1643464645201,18831.0157728,-7
1643464645201,18831.0157758,37
1643464645201,18831.0157787,75
1643464645201,18831.0157831,115
1643464645201,18831.0157863,148
1643464645201,18831.0157894,153
1643464645201,18831.0157925,139
1643464645201,18831.0157956,136
1643464645233,18831.0157987,174
1643464645233,18831.0158017,204
1643464645233,18831.0158791,190
1643464645233,18831.0158828,157
1643464645233,18831.0158859,108
1643464645233,18831.0158889,28
1643464645233,18831.0158918,-35
1643464645233,18831.0158948,-61
1643464645233,18831.0158977,-75
1643464645233,18831.0159007,-106
1643464645266,18831.0159223,-131
1643464645266,18831.0159264,-141
1643464645266,18831.0159294,-150
1643464645266,18831.0159323,-160
1643464645266,18831.0159352,-157
1643464645266,18831.0159381,-146
1643464645266,18831.0159411,-131
1643464645266,18831.0159439,-108
1643464645266,18831.0159564,-98
1643464645266,18831.0159615,-134
1643464645300,18831.0159648,-150
1643464645300,18831.0159685,-91
1643464645300,18831.0159714,-37
1643464645300,18831.0159743,-63
1643464645435,18831.0159772,-110
1643464645435,18831.0159801,-113
1643464645435,18831.015983,-103
1643464645435,18831.015986,-108
1643464645435,18831.015989,-101
1643464645435,18831.0159919,-101
1643464645435,18831.0159948,-108
1643464645435,18831.0159976,-101
1643464645435,18831.0160005,-108
1643464645435,18831.0160033,-96
1643464645466,18831.0160062,-65
1643464645466,18831.016009,-65
1643464645466,18831.0160119,-103
1643464645466,18831.0160148,-129
1643464645466,18831.0160176,-94
1643464645466,18831.0160205,-37
1643464645466,18831.0160234,-54
1643464645466,18831.0160267,-94
1643464645466,18831.0160295,-61
1643464645466,18831.0160324,-30
1643464645501,18831.0160352,-58
1643464645501,18831.0160381,-80
1643464645501,18831.0160409,-77
1643464645501,18831.0160438,-75
1643464645501,18831.3679448,-42
1643464645501,18831.3679587,-14
1643464645501,18831.3679626,-44
1643464645501,18831.3679679,-87
1643464645501,18831.3679711,-82
1643464645501,18831.3679763,-56
1643464645532,18831.3679794,-54
1643464645532,18831.3679843,-14
1643464645532,18831.3679877,275
1643464645532,18831.3679918,925
1643464645532,18831.367995,1573
1643464645532,18831.3680003,1472
1643464645532,18831.3680036,527
1643464645532,18831.3680089,-164
1643464645532,18831.3680135,-80
1643464645532,18831.3680184,0
1643464645566,18831.3680215,-157
1643464645566,18831.3680246,-143
1643464645566,18831.3680289,-68
1643464645566,18831.3680332,-98
1643464645566,18831.3680363,-96
1643464645566,18831.3680412,-65
1643464645566,18831.3680442,-82
1643464645566,18831.3680472,-73
1643464645566,18831.3680512,-37
1643464645566,18831.3680543,-40
1643464645600,18831.3680598,-21
1643464645600,18831.3680642,40
1643464645600,18831.3680674,51
1643464645600,18831.3680704,32
1643464645600,18831.3680734,61
1643464645600,18831.3680763,115
1643464645600,18831.3680793,136
1643464645600,18831.3680822,146
1643464645600,18831.3680866,190
1643464645600,18831.3680903,221
1643464645635,18831.3680934,195
1643464645635,18831.3680965,176
1643464645635,18831.3681015,167
1643464645635,18831.3681062,94
1643464645635,18831.3681105,-9
1643464645635,18831.3681136,-42
1643464645635,18831.3681186,-40
1643464645635,18831.3681232,-80
1643464645635,18831.3681282,-115
1643464645635,18831.3681326,-117
1643464645666,18831.3681366,-136
1643464645666,18831.3681397,-167
1643464645666,18831.3681437,-176
1643464645666,18831.3681468,-162
1643464646033,18831.3681518,-162
1643464646033,18831.3681548,-155
1643464646033,18831.3681578,-131
1643464646033,18831.3681608,-141
1643464646033,18831.3681637,-146
1643464646033,18831.368167,-120
1643464646033,18831.36817,-108
1643464646033,18831.3681729,-96
1643464646033,18831.3681758,-65
1643464646033,18831.3681791,-54
1643464646065,18831.3681821,-61
1643464646065,18831.368185,-73
1643464646065,18831.368188,-91
1643464646065,18831.368191,-89
1643464646065,18831.3681939,-63
1643464646065,18831.3681968,-61
1643464646065,18831.3681998,-63
1643464646065,18831.3682027,-51
1643464646065,18831.3682056,-65
1643464646065,18831.3682086,-98
1643464646100,18831.3682117,-89
1643464646100,18831.3682147,-49
1643464646100,18831.3682175,-44
1643464646100,18831.9658013,-16
1643464646100,18831.9658144,30
1643464646100,18831.9658198,4
1643464646100,18831.9658257,-42
1643464646100,18831.9658288,-37
1643464646100,18831.965832,-11
1643464646100,18831.965922,-9
1643464646133,18831.9659332,-32
1643464646133,18831.9659372,-56
1643464646133,18831.9659422,-56
1643464646133,18831.9659453,-35
1643464646133,18831.9659484,-30
1643464646133,18831.9659514,-68
1643464646133,18831.9659564,-65
1643464646133,18831.9659593,155
1643464646133,18831.9659624,692
1643464646133,18831.9659654,1345
1643464646166,18831.9659684,1646
1643464646166,18831.9659714,1081
1643464646166,18831.9659745,103
1643464646166,18831.9659786,-209
1643464646166,18831.9659817,-54
1643464646166,18831.965986,-136
1643464646166,18831.9659891,-240
1643464646166,18831.9659942,-169
1643464646166,18831.9659982,-139
1643464646166,18831.9660023,-153
1643464646200,18831.9660054,-124
1643464646200,18831.9660094,-110
1643464646200,18831.9660124,-124
1643464646200,18831.9660166,-110
1643464646200,18831.9660196,-75
1643464646200,18831.9660236,-54
1643464646200,18831.9660267,-25
1643464646200,18831.9660317,14
1643464646200,18831.9660346,30
1643464646200,18831.9660386,37
1643464646233,18831.9660416,75
1643464646233,18831.9660447,113
1643464646233,18831.9660483,141
1643464646233,18831.9660513,179
1643464646233,18831.9660543,160
1643464646233,18831.9660573,106
1643464646233,18831.9660603,122
1643464646233,18831.9660633,141
1643464646233,18831.9660664,82
1643464646233,18831.9660704,14
1643464646266,18831.9660734,-28
1643464646266,18831.9660764,-82
1643464646266,18831.9660794,-110
1643464646266,18831.9660824,-106
1643464646566,18831.9660865,-103
1643464646566,18831.9660894,-108
1643464646566,18831.9660923,-129
1643464646566,18831.9660951,-141
1643464646566,18831.966098,-101
1643464646566,18831.9661008,-84
1643464646566,18831.9661036,-120
1643464646566,18831.9661064,-127
1643464646566,18831.9661093,-120
1643464646566,18831.9661121,-115
1643464646599,18831.966115,-117
1643464646599,18831.9661178,-103
1643464646599,18831.9661207,-49
1643464646599,18831.9661235,-9
1643464646599,18831.9661263,-32
1643464646599,18831.9661292,-58
1643464646599,18831.9661322,-44
1643464646599,18831.9661352,-32
1643464646599,18831.9661383,-21
1643464646599,18831.9661413,-14
1643464646632,18831.9661443,-16
1643464646632,18831.9661473,-18
1643464646632,18832.516375,-51
1643464646632,18832.5163881,-101
1643464646632,18832.5163918,-108
1643464646632,18832.5163973,-101
1643464646632,18832.5164005,-103
1643464646632,18832.5164055,-42
1643464646632,18832.5164108,18
1643464646632,18832.5164139,-4
1643464646666,18832.5164171,-14
1643464646666,18832.5164202,9
1643464646666,18832.5164261,-9
1643464646666,18832.51643,-7
1643464646666,18832.5164332,11
1643464646666,18832.5164363,-37
1643464646666,18832.5164395,-77
1643464646666,18832.5164426,-70
1643464646666,18832.5164456,-65
1643464646666,18832.5164486,-54
1643464646700,18832.5164517,-51
1643464646700,18832.5164554,-91
1643464646700,18832.5164585,-106
1643464646700,18832.5164638,61
1643464646700,18832.5164669,523
1643464646700,18832.5164722,1196
1643464646700,18832.5164753,1606
1643464646700,18832.51648,1133
1643464646700,18832.5164845,143
1643464646700,18832.516491,-233
1643464646733,18832.5164963,-65
1643464646733,18832.5164994,-110
1643464646733,18832.5165047,-226
1643464646733,18832.5165077,-176
1643464646733,18832.516513,-148
1643464646733,18832.5165161,-181
1643464646733,18832.5165211,-150
1643464646733,18832.5165242,-82
1643464646733,18832.5165292,-73
1643464646733,18832.5165327,-94
1643464646765,18832.5165386,-80
1643464646765,18832.516542,-63
1643464646765,18832.5165471,-56
1643464646765,18832.5165502,-14
1643464646765,18832.5165533,25
1643464646765,18832.5165563,18
1643464646765,18832.5165614,25
1643464646765,18832.5165645,94
1643464646765,18832.5165695,115
1643464646765,18832.5165725,82
1643464646799,18832.5165756,117
1643464646799,18832.5165806,190
1643464646799,18832.5165836,183
1643464646799,18832.516591,129
1643464647099,18832.5166124,120
1643464647099,18832.5166173,89
1643464647099,18832.5166214,-4
1643464647099,18832.5166245,-44
1643464647099,18832.5166274,-30
1643464647099,18832.5166304,-68
1643464647099,18832.5166333,-115
1643464647099,18832.5166362,-127
1643464647099,18832.5166392,-120
1643464647099,18832.5166422,-115
1643464647132,18832.5166451,-153
1643464647132,18832.5166481,-171
1643464647132,18832.516651,-117
1643464647132,18832.5166539,-70
1643464647132,18832.5166568,-75
1643464647132,18832.5166667,-70
1643464647132,18832.5166703,-51
1643464647132,18832.5166733,-44
1643464647132,18832.5166763,-40
1643464647132,18832.5166792,-35
1643464647167,18832.5166821,-42
1643464647167,18833.0198811,-49
1643464647167,18833.019893,-35
1643464647167,18833.0198965,-9
1643464647167,18833.0198995,-16
1643464647167,18833.0199024,-49
1643464647167,18833.0199053,-25
1643464647167,18833.0199085,25
1643464647167,18833.0199113,-4
1643464647167,18833.0199142,-80
1643464647199,18833.0199171,-84
1643464647199,18833.01992,-30
1643464647199,18833.0199228,-21
1643464647199,18833.0199257,-40
1643464647199,18833.0199398,-11
1643464647199,18833.0199473,14
1643464647199,18833.0199525,4
1643464647199,18833.0199556,14
1643464647199,18833.0199605,23
1643464647199,18833.0199636,-32
1643464647234,18833.019967,-91
1643464647234,18833.0199714,-63
1643464647234,18833.0199745,-9
1643464647234,18833.0199775,-4
1643464647234,18833.0199825,-42
1643464647234,18833.0199855,-77
1643464647234,18833.0199894,-56
1643464647234,18833.0199926,9
1643464647234,18833.0199965,23
1643464647234,18833.0199997,-42
1643464647266,18833.0200042,-115
1643464647266,18833.0200081,-35
1643464647266,18833.0200113,315
1643464647266,18833.0200165,918
1643464647266,18833.0200196,1463
1643464647266,18833.0200228,1286
1643464647266,18833.0200266,388
1643464647266,18833.0200297,-150
1643464647266,18833.0200339,-37
1643464647266,18833.0200369,-30
1643464647299,18833.0200401,-183
1643464647299,18833.020045,-146
1643464647299,18833.0200483,-70
1643464647299,18833.0200514,-87
1643464647299,18833.0200563,-61
1643464647299,18833.0200594,-9
1643464647299,18833.0200634,-51
1643464647299,18833.0200666,-127
1643464647299,18833.0200706,-101
1643464647299,18833.0200736,-44
1643464647333,18833.0200765,-32
1643464647333,18833.0200795,0
1643464647333,18833.0200825,51
1643464647333,18833.0200854,68
1643464647667,18833.0200893,101
1643464647667,18833.0200923,169
1643464647667,18833.0200951,216
1643464647667,18833.0200979,214
1643464647667,18833.0201047,181
1643464647667,18833.0201081,167
1643464647667,18833.0201111,183
1643464647667,18833.0201142,181
1643464647667,18833.0201174,127
1643464647667,18833.0201202,58
1643464647700,18833.020123,4
1643464647700,18833.0201259,-44
1643464647700,18833.0201288,-70
1643464647700,18833.0201316,-51
1643464647700,18833.0201344,-54
1643464647700,18833.0201373,-101
1643464647700,18833.0201402,-108
1643464647700,18833.020143,-51
1643464647700,18833.0201458,-23
1643464647700,18833.0201486,-47
1643464647734,18833.6183807,-54
1643464647734,18833.6183914,-56
1643464647734,18833.618395,-101
1643464647734,18833.618398,-129
1643464647734,18833.618401,-106
1643464647734,18833.618404,-80
1643464647734,18833.6184069,-63
1643464647734,18833.6184097,-32
1643464647734,18833.6184127,-14
1643464647734,18833.6184156,-11
1643464647765,18833.6184187,0
1643464647765,18833.6184217,7
1643464647765,18833.6184247,-11
1643464647765,18833.6184276,-37
1643464647765,18833.6184305,-37
1643464647765,18833.6184334,-40
1643464647765,18833.6184364,-56
1643464647765,18833.6184393,-61
1643464647765,18833.6184422,-70
1643464647765,18833.6184456,-87
1643464647799,18833.6184485,-65
1643464647799,18833.6184514,-40
1643464647799,18833.6184543,-70
1643464647799,18833.6184572,-84
1643464647799,18833.6184601,-49
1643464647799,18833.6184632,-70
1643464647799,18833.6184661,-117
1643464647799,18833.6184689,-70
1643464647799,18833.6184718,-23
1643464647799,18833.6184747,-42
1643464647833,18833.6184776,-47
1643464647833,18833.6184805,-30
1643464647833,18833.6184834,-40
1643464647833,18833.6184863,-61
1643464647833,18833.6184892,-54
1643464647833,18833.6184921,-47
1643464647833,18833.6184949,-61
1643464647833,18833.6184978,-56
1643464647833,18833.6185007,-21
1643464647833,18833.6185037,9
1643464647871,18833.6185068,7
1643464647871,18833.6185097,-21
1643464647871,18833.6185126,11
1643464647871,18833.6185155,197
1643464647871,18833.6185185,607
1643464647871,18833.6185214,1185
1643464647871,18833.6185243,1411
1643464647871,18833.6185272,801
1643464647871,18833.6185301,9
1643464647871,18833.6185331,-96
1643464647904,18833.618536,47
1643464647904,18833.6185389,-82
1643464647904,18833.6185419,-171
1643464647904,18833.6185448,-96
1643464648132,18833.6185477,-68
1643464648132,18833.6185506,-98
1643464648132,18833.6185535,-82
1643464648132,18833.6185564,-47
1643464648132,18833.6185593,-73
1643464648132,18833.6185622,-91
1643464648132,18833.6185651,-42
1643464648132,18833.618568,-2
1643464648132,18833.6185709,-7
1643464648132,18833.6185745,7
1643464648168,18833.6185778,47
1643464648168,18833.6185807,70
1643464648168,18833.6185837,89
1643464648168,18833.6185867,117
1643464648168,18833.6185896,124
1643464648168,18833.6185925,136
1643464648168,18833.6185955,171
1643464648168,18833.6185984,186
1643464648168,18833.6186017,183
1643464648168,18834.0699374,190
1643464648199,18834.0699505,139
1643464648199,18834.0699542,51
1643464648199,18834.0699574,14
1643464648199,18834.0699617,4
1643464648199,18834.0699649,-35
1643464648199,18834.0699699,-75
1643464648199,18834.0699728,-94
1643464648199,18834.0699757,-124
1643464648199,18834.0699788,-139
1643464648199,18834.0699818,-110
1643464648233,18834.0699849,-115
1643464648233,18834.0699885,-136
1643464648233,18834.0699927,-110
1643464648233,18834.0699959,-87
1643464648233,18834.0700013,-113
1643464648233,18834.0700044,-139
1643464648233,18834.0700074,-103
1643464648233,18834.0700105,-54
1643464648233,18834.0700258,-61
1643464648233,18834.0700314,-82
1643464648269,18834.0700345,-68
1643464648269,18834.0700377,-70
1643464648269,18834.0700419,-87
1643464648269,18834.0700451,-70
1643464648269,18834.07005,-49
1643464648269,18834.070053,-63
1643464648269,18834.070057,-65
1643464648269,18834.07006,-73
1643464648269,18834.0700652,-91
1643464648269,18834.0700684,-73
1643464648299,18834.0700734,-65
1643464648299,18834.0700765,-70
1643464648299,18834.0700821,-42
1643464648299,18834.0700852,-32
1643464648299,18834.0700924,-56
1643464648299,18834.0701229,-65
1643464648299,18834.0701421,-49
1643464648299,18834.0701467,-30
1643464648299,18834.0701501,-58
1643464648299,18834.070153,-103
1643464648333,18834.0701558,-91
1643464648333,18834.0701586,-75
1643464648333,18834.0701614,-77
1643464648333,18834.0701642,-49
1643464648333,18834.070167,-4
1643464648333,18834.0701698,-7
1643464648333,18834.0701727,-40
1643464648333,18834.0701755,-58
1643464648333,18834.0701783,-58
1643464648333,18834.0701811,-56
1643464648371,18834.070184,-49
1643464648371,18834.0701868,-28
1643464648371,18834.0701896,-23
1643464648371,18834.0701924,-21
1643464648731,18834.0702048,-4
1643464648731,18834.0702155,-16
1643464648731,18834.0702199,-42
1643464648731,18834.0702229,82
1643464648731,18834.0702258,513
1643464648731,18834.070229,1196
1643464648731,18834.0702318,1653
1643464648731,18834.0702346,1215
1643464648731,18834.0702374,214
1643464648731,18834.0702402,-153
1643464648764,18834.070243,40
1643464648764,18834.0702458,-40
1643464648764,18834.0702972,-209
1643464648764,18834.0703025,-146
1643464648764,18834.0703055,-94
1643464648764,18834.0703083,-131
1643464648764,18834.0703163,-141
1643464648764,18834.0703313,-122
1643464648764,18834.6693135,-89
1643464648764,18834.669327,-58
1643464648798,18834.6693319,-37
1643464648798,18834.6693364,-42
1643464648798,18834.6693393,-61
1643464648798,18834.6693436,-35
1643464648798,18834.669348,18
1643464648798,18834.6693523,51
1643464648798,18834.6693552,70
1643464648798,18834.6693582,73
1643464648798,18834.6693626,80
1643464648798,18834.6693654,106
1643464648833,18834.6693683,124
1643464648833,18834.6693714,148
1643464648833,18834.6693754,167
1643464648833,18834.6693784,176
1643464648833,18834.6693827,164
1643464648833,18834.6693856,96
1643464648833,18834.669389,11
1643464648833,18834.669393,-37
1643464648833,18834.6693962,-89
1643464648833,18834.6694002,-146
1643464648866,18834.669403,-176
1643464648866,18834.669406,-183
1643464648866,18834.669409,-171
1643464648866,18834.6694121,-155
1643464648866,18834.6694161,-169
1643464648866,18834.6694191,-200
1643464648866,18834.669423,-179
1643464648866,18834.6694261,-127
1643464648866,18834.6694303,-115
1643464648866,18834.6694334,-115
1643464648900,18834.6694377,-89
1643464648900,18834.6694405,-77
1643464648900,18834.6694434,-82
1643464648900,18834.6694464,-94
1643464648900,18834.6694493,-117
1643464648900,18834.6694524,-136
1643464648900,18834.6694562,-141
1643464648900,18834.6694591,-148
1643464648900,18834.6694628,-117
1643464648900,18834.6694671,-44
1643464648933,18834.6694701,-18
1643464648933,18834.6694741,-51
1643464648933,18834.669477,-73
1643464648933,18834.66948,-68
1643464648933,18834.6694844,-58
1643464648933,18834.6694874,-87
1643464648933,18834.6694916,-134
1643464648933,18834.6694944,-134
1643464648933,18834.6694972,-94
1643464648933,18834.6695001,-63
1643464648965,18834.6695031,-25
1643464648965,18834.6695074,-30
1643464648965,18834.6695103,-84
1643464648965,18834.6695148,-42
1643464649233,18834.6695177,44
1643464649233,18834.6695207,9
1643464649233,18834.6695238,-75
1643464649233,18834.6695266,-89
1643464649233,18834.6695294,-42
1643464649233,18834.6695321,-11
1643464649233,18834.6695349,-44
1643464649233,18834.6695378,-75
1643464649233,18834.6695406,-32
1643464649233,18834.6695434,-14
1643464649264,18834.6695462,-65
1643464649264,18834.669549,-77
1643464649264,18834.6695518,-18
1643464649264,18834.6695546,127
1643464649264,18834.6695575,471
1643464649264,18834.6695604,1038
1643464649264,18834.6695632,1517
1643464649264,18835.1714107,1185
1643464649264,18835.1714229,174
1643464649264,18835.1714264,-273
1643464649300,18835.1714295,-40
1643464649300,18835.1714324,-9
1643464649300,18835.1714354,-124
1643464649300,18835.1714383,-65
1643464649300,18835.1714412,-56
1643464649300,18835.1714441,-127
1643464649300,18835.171447,-108
1643464649300,18835.17145,-68
1643464649300,18835.1714528,-73
1643464649300,18835.1714556,-65
1643464649333,18835.1714585,-91
1643464649333,18835.1714614,-113
1643464649333,18835.1714643,2
1643464649333,18835.1714671,68
1643464649333,18835.1714699,-58
1643464649333,18835.1714729,-44
1643464649333,18835.1714757,179
1643464649333,18835.1714785,214
1643464649333,18835.1714814,32
1643464649333,18835.1714842,-30
1643464649365,18835.171487,101
1643464649365,18835.1715236,193
1643464649365,18835.1715641,148
1643464649365,18835.1716094,35
1643464649365,18835.1716228,37
1643464649365,18835.171627,181
1643464649365,18835.1716302,162
1643464649365,18835.1716331,4
1643464649365,18835.1716361,-101
1643464649365,18835.1716391,-219
1643464649398,18835.1716421,-313
1643464649398,18835.1716449,-183
1643464649398,18835.1716477,-4
1643464649398,18835.1716506,-103
1643464649398,18835.1716535,-249
1643464649398,18835.1716563,-148
1643464649398,18835.1716592,-47
1643464649398,18835.1716621,-176
1643464649398,18835.1716651,-259
1643464649398,18835.1716679,-113
1643464649444,18835.1716707,2
1643464649444,18835.1716736,-4
1643464649444,18835.1716766,-37
1643464649444,18835.1716795,-58
1643464649444,18835.1716823,-35
1643464649444,18835.1716852,-37
1643464649444,18835.171688,-84
1643464649444,18835.1716909,-127
1643464649444,18835.1716938,-141
1643464649444,18835.1716967,-61
1643464649466,18835.1716996,47
1643464649466,18835.1717025,7
1643464649466,18835.1717054,-124
1643464649466,18835.1717083,-120
1643464649834,18835.1717111,49
1643464649834,18835.171714,101
1643464649834,18835.1717169,-91
1643464649834,18835.1717198,-235
1643464649834,18835.1717227,-176
1643464649834,18835.1717257,-89
1643464649834,18835.1717285,-80
1643464649834,18835.1717319,-70
1643464649834,18835.1717347,-18
1643464649834,18835.1717377,11
1643464649868,18835.1717406,42
1643464649868,18835.1717435,61
1643464649868,18835.1717463,-16
1643464649868,18835.1717492,-51
1643464649868,18835.1717521,-16
1643464649868,18835.1717553,-35
1643464649868,18835.7713932,-14
1643464649868,18835.7714059,28
1643464649868,18835.7714094,-70
1643464649868,18835.7714124,-176
1643464649900,18835.7714153,-68
1643464649900,18835.7714183,136
1643464649900,18835.7714212,259
1643464649900,18835.7714245,475
1643464649900,18835.7714277,968
1643464649900,18835.7714306,1260
1643464649900,18835.7714334,683
1643464649900,18835.7714362,-169
1643464649900,18835.7714391,-233
1643464649900,18835.771442,101
1643464649933,18835.7714453,68
1643464649933,18835.7714481,-120
1643464649933,18835.7714509,-94
1643464649933,18835.7714538,4
1643464649933,18835.7714567,-7
1643464649933,18835.7714595,-32
1643464649933,18835.7714624,-21
1643464649933,18835.7714652,-23
1643464649933,18835.771468,-49
1643464649933,18835.7714709,-80
1643464649966,18835.7714738,-73
1643464649966,18835.7714767,9
1643464649966,18835.7714795,89
1643464649966,18835.7714824,77
1643464649966,18835.7714853,63
1643464649966,18835.7714881,110
1643464649966,18835.771491,58
1643464649966,18835.7714938,23
1643464649966,18835.7714966,207
1643464649966,18835.7714994,268
1643464650004,18835.7715023,108
1643464650004,18835.7715051,134
1643464650004,18835.771508,270
1643464650004,18835.771511,226
1643464650004,18835.771514,120
1643464650004,18835.7715168,70
1643464650004,18835.7715199,-21
1643464650004,18835.771523,-148
1643464650004,18835.7715271,-136
1643464650004,18835.7715335,-21
1643464650035,18835.7715374,-40
1643464650035,18835.7715406,-94
1643464650035,18835.7715444,-56
1643464650035,18835.77155,-80
1643464650035,18835.7715531,-171
1643464650035,18835.7715581,-143
1643464650035,18835.7715613,-9
1643464650035,18835.7715662,7
1643464650035,18835.7715694,-103
1643464650035,18835.7715735,-155
1643464650072,18835.7715765,-122
1643464650072,18835.7715796,-65
1643464650072,18835.7715827,-16
1643464650072,18835.7715859,-54
1643464650434,18835.7715888,-181
1643464650434,18835.7715931,-188
1643464650434,18835.7715962,-16
1643464650434,18835.7715993,49
1643464650434,18835.7716023,-42
1643464650434,18835.7716053,-103
1643464650434,18835.7716082,-61
1643464650434,18835.771611,73
1643464650434,18835.7716139,113
1643464650434,18835.7716183,23
1643464650466,18835.7716216,2
1643464650466,18835.7716245,21
1643464650466,18835.7716275,-61
1643464650466,18835.7716303,-139
1643464650466,18835.7716333,-103
1643464650466,18836.3693201,-56
1643464650466,18836.3693321,-89
1643464650466,18836.3693356,-143
1643464650466,18836.3693388,-77
1643464650466,18836.369342,35
1643464650500,18836.3693646,2
1643464650500,18836.3693886,-51
1643464650500,18836.369396,-14
1643464650500,18836.3693995,32
1643464650500,18836.3694025,44
1643464650500,18836.3694054,-16
1643464650500,18836.3694082,-77
1643464650500,18836.3694111,-63
1643464650500,18836.369414,-44
1643464650500,18836.3694169,-47
1643464650532,18836.3694199,-56
1643464650532,18836.3694333,-54
1643464650532,18836.3694383,-11
1643464650532,18836.3694415,-2
1643464650532,18836.3694465,47
1643464650532,18836.3694495,362
1643464650532,18836.3694527,859
1643464650532,18836.3694557,1196
1643464650532,18836.3694588,1001
1643464650532,18836.3694617,315
1643464650567,18836.3694646,-110
1643464650567,18836.3694674,-63
1643464650567,18836.3694703,-58
1643464650567,18836.3694731,-113
1643464650567,18836.369476,-54
1643464650567,18836.3694788,-54
1643464650567,18836.3694817,-115
1643464650567,18836.3694846,-94
1643464650567,18836.3694874,14
1643464650567,18836.3694903,61
1643464650599,18836.3694932,-23
1643464650599,18836.3694961,-84
1643464650599,18836.369499,-21
1643464650599,18836.3695019,70
1643464650599,18836.3695048,106
1643464650599,18836.3695076,84
1643464650599,18836.3695105,37
1643464650599,18836.3695134,44
1643464650599,18836.3695166,134
1643464650599,18836.3695205,188
1643464650633,18836.3695236,162
1643464650633,18836.3695285,171
1643464650633,18836.3695318,202
1643464650633,18836.3695348,155
1643464650633,18836.3695377,96
1643464650633,18836.3695407,115
1643464650633,18836.3695438,122
1643464650633,18836.3695466,70
1643464650633,18836.3695497,30
1643464650633,18836.3695527,-40
1643464650665,18836.3695558,-110
1643464650665,18836.36956,-68
1643464650665,18836.3695634,-25
1643464650665,18836.3695669,-56
1643464650975,18836.3695698,-65
1643464650975,18836.3695726,-65
1643464650975,18836.3695755,-98
1643464650975,18836.3695787,-98
1643464650975,18836.3695815,-58
1643464650975,18836.3695844,-44
1643464650975,18836.3695872,-65
1643464650975,18836.36959,-80
1643464650975,18836.3695928,-56
1643464650975,18836.3695957,-32
1643464651026,18836.3695984,-77
1643464651026,18836.3696013,-108
1643464651026,18836.3696041,-35
1643464651026,18836.369607,4
1643464651026,18836.9212399,-54
1643464651026,18836.9212513,-56
1643464651026,18836.9212549,14
1643464651026,18836.9212583,-7
1643464651026,18836.9212612,-110
1643464651026,18836.921264,-108
1643464651055,18836.9212668,-23
1643464651055,18836.9212697,2
1643464651055,18836.9212725,-23
1643464651055,18836.9212752,-54
1643464651055,18836.921278,-68
1643464651055,18836.9212815,-18
1643464651055,18836.9212843,9
1643464651055,18836.9212871,-75
1643464651055,18836.92129,-143
1643464651055,18836.9212928,-96
1643464651090,18836.9212955,-56
1643464651090,18836.9212983,-73
1643464651090,18836.9213011,-82
1643464651090,18836.9213039,-73
1643464651090,18836.9213071,-40
1643464651090,18836.9213099,-2
1643464651090,18836.9213127,0
1643464651090,18836.9213155,-25
1643464651090,18836.9213183,-30
1643464651090,18836.9213211,-18
1643464651125,18836.9213238,-42
1643464651125,18836.9213266,-63
1643464651125,18836.9213294,-16
1643464651125,18836.9213326,25
1643464651125,18836.9213355,2
1643464651125,18836.9213383,-44
1643464651125,18836.9213416,-51
1643464651125,18836.9213445,2
1643464651125,18836.9213473,115
1643464651125,18836.9213503,351
1643464651154,18836.9213535,772
1643464651154,18836.9214176,1168
1643464651154,18836.9214259,991
1643464651154,18836.9214296,289
1643464651154,18836.9214327,-73
1643464651154,18836.9214357,21
1643464651154,18836.9214386,-21
1643464651154,18836.9214414,-141
1643464651154,18836.9214443,-120
1643464651154,18836.9214471,-63
1643464651186,18836.9214506,21
1643464651186,18836.9214545,77
1643464651186,18836.9214573,23
1643464651186,18836.9214606,2
1643464651186,18836.9214636,68
1643464651186,18836.9214664,54
1643464651186,18836.9214692,-14
1643464651186,18836.921472,28
1643464651186,18836.9214748,73
1643464651186,18836.9214776,7
1643464651218,18836.9214804,-2
1643464651218,18836.9214832,44
1643464651218,18836.921486,56
1643464651218,18836.9214888,115
1643464651523,18836.9214916,176
1643464651523,18836.9214944,195
1643464651523,18836.9214973,230
1643464651523,18836.9215001,237
1643464651523,18836.9215029,221
1643464651523,18836.9215057,240
1643464651523,18836.9215084,176
1643464651523,18836.9215113,25
1643464651523,18836.9215142,-35
1643464651523,18836.9215171,-18
1643464651562,18836.9215199,-44
1643464651562,18836.9215228,-103
1643464651562,18836.9215256,-136
1643464651562,18837.4709812,-153
1643464651562,18837.4709949,-148
1643464651562,18837.4709998,-73
1643464651562,18837.4710052,-23
1643464651562,18837.4710083,-80
1643464651562,18837.4710134,-108
1643464651562,18837.4710166,-42
1643464651596,18837.4710217,4
1643464651596,18837.4710249,4
1643464651596,18837.4710299,-23
1643464651596,18837.471033,-75
1643464651596,18837.4710381,-82
1643464651596,18837.4710412,-11
1643464651596,18837.4710461,16
1643464651596,18837.4710494,-70
1643464651596,18837.4710542,-106
1643464651596,18837.4710574,-9
1643464651631,18837.4710623,23
1643464651631,18837.4710655,-70
1643464651631,18837.4710705,-106
1643464651631,18837.4710736,-51
1643464651631,18837.4710786,-35
1643464651631,18837.4710818,-89
1643464651631,18837.4710869,-150
1643464651631,18837.4710901,-160
1643464651631,18837.4710955,-141
1643464651631,18837.4710986,-131
1643464651667,18837.4711036,-96
1643464651667,18837.4711067,-28
1643464651667,18837.4711118,25
1643464651667,18837.4711151,9
1643464651667,18837.47112,-73
1643464651667,18837.4711231,-98
1643464651667,18837.4711281,-18
1643464651667,18837.4711312,61
1643464651667,18837.4711363,58
1643464651667,18837.4711396,-16
1643464651701,18837.4711446,-21
1643464651701,18837.4711478,70
1643464651701,18837.471153,35
1643464651701,18837.4711562,-40
1643464651701,18837.4711611,7
1643464651701,18837.4711644,-9
1643464651701,18837.4711694,-91
1643464651701,18837.4711725,-89
1643464651701,18837.4711774,-51
1643464651701,18837.4711806,-28
1643464651740,18837.4711857,-18
1643464651740,18837.4711888,-61
1643464651740,18837.4711938,-73
1643464651740,18837.471197,16
1643464651740,18837.4712019,75
1643464651740,18837.471205,171
1643464651740,18837.4712101,640
1643464651740,18837.4712137,1392
1643464651740,18837.4712187,1561
1643464651740,18837.4712218,718
1643464651778,18837.4712272,-68
1643464651778,18837.4712303,-18
1643464651778,18837.4712353,120
1643464651778,18837.4712385,-35
1643464652119,18837.4712433,-94
1643464652119,18837.4712463,-80
1643464652119,18837.4712492,-94
1643464652119,18837.4712521,-49
1643464652119,18837.471255,2
1643464652119,18837.4712579,14
1643464652119,18837.4712608,16
1643464652119,18837.4712637,-18
1643464652119,18837.4712666,-40
1643464652119,18837.4712695,30
1643464652151,18837.4712724,101
1643464652151,18837.4712753,61
1643464652151,18838.0674228,-14
1643464652151,18838.0674351,32
1643464652151,18838.067439,164
1643464652151,18838.0674421,139
1643464652151,18838.0674451,63
1643464652151,18838.0674481,190
1643464652151,18838.0674543,336
1643464652151,18838.0674574,280
1643464652183,18838.0674605,216
1643464652183,18838.0674635,275
1643464652183,18838.0674664,268
1643464652183,18838.0674694,162
1643464652183,18838.0674723,58
1643464652183,18838.0674753,-51
1643464652183,18838.0674787,-139
1643464652183,18838.0674816,-179
1643464652183,18838.0674845,-176
1643464652183,18838.067488,-146
1643464652216,18838.0674909,-113
1643464652216,18838.0674939,-87
1643464652216,18838.0674968,-103
1643464652216,18838.0674997,-221
1643464652216,18838.0675027,-280
1643464652216,18838.0675055,-134
1643464652216,18838.0675084,-47
1643464652216,18838.0675112,-131
1643464652216,18838.0675141,-179
1643464652216,18838.0675171,-162
1643464652249,18838.06752,-167
1643464652249,18838.0675229,-155
1643464652249,18838.0675258,-96
1643464652249,18838.0675287,-42
1643464652249,18838.0675316,-9
1643464652249,18838.0675344,-16
1643464652249,18838.0675373,-75
1643464652249,18838.0675402,-82
1643464652249,18838.0675431,-49
1643464652249,18838.067546,-75
1643464652285,18838.0675489,-70
1643464652285,18838.0675517,-9
1643464652285,18838.0675547,-16
1643464652285,18838.0675576,-35
1643464652285,18838.0675605,11
1643464652285,18838.0675637,14
1643464652285,18838.0675666,-63
1643464652285,18838.0675695,-106
1643464652285,18838.0675725,-70
1643464652285,18838.0675754,-25
1643464652318,18838.0675783,-49
1643464652318,18838.0675811,-65
1643464652318,18838.067584,-49
1643464652318,18838.0675869,-73
1643464652318,18838.0675898,-49
1643464652318,18838.0675927,7
1643464652318,18838.0675956,-25
1643464652318,18838.0675985,-70
1643464652318,18838.0676015,-35
1643464652318,18838.0676043,-16
1643464652350,18838.0676078,-7
1643464652350,18838.0676107,65
1643464652350,18838.0676137,96
1643464652350,18838.0676167,28
1643464652648,18838.0676196,-16
1643464652648,18838.0676225,0
1643464652648,18838.0676255,25
1643464652648,18838.0676285,164
1643464652648,18838.0676315,652
1643464652648,18838.0676345,1359
1643464652648,18838.0676375,1691
1643464652648,18838.0676405,1173
1643464652648,18838.0676434,270
1643464652648,18838.0676465,-75
1643464652683,18838.0676495,4
1643464652683,18838.5700069,-58
1643464652683,18838.5700188,-143
1643464652683,18838.5700224,-120
1643464652683,18838.5700255,-115
1643464652683,18838.5700284,-110
1643464652683,18838.5700314,-65
1643464652683,18838.5700343,-63
1643464652683,18838.5700374,-77
1643464652683,18838.5700403,-28
1643464652716,18838.5700433,0
1643464652716,18838.5700463,-21
1643464652716,18838.5700492,-2
1643464652716,18838.5700522,51
1643464652716,18838.5700551,98
1643464652716,18838.5700579,113
1643464652716,18838.5700608,96
1643464652716,18838.5700637,103
1643464652716,18838.5700666,146
1643464652716,18838.5700695,164
1643464652750,18838.5700723,139
1643464652750,18838.5700752,139
1643464652750,18838.5700781,197
1643464652750,18838.5700809,221
1643464652750,18838.5700838,157
1643464652750,18838.5700866,63
1643464652750,18838.5700895,-23
1643464652750,18838.5700924,-89
1643464652750,18838.5700953,-117
1643464652750,18838.5700981,-108
1643464652782,18838.5701014,-98
1643464652782,18838.5701042,-80
1643464652782,18838.570107,-68
1643464652782,18838.5701098,-101
1643464652782,18838.5701127,-117
1643464652782,18838.5701155,-56
1643464652782,18838.5701184,-32
1643464652782,18838.5701212,-115
1643464652782,18838.570125,-150
1643464652782,18838.5701278,-49
1643464652815,18838.5701307,16
1643464652815,18838.5701336,-75
1643464652815,18838.5701364,-148
1643464652815,18838.5701392,-101
1643464652815,18838.5701421,-82
1643464652815,18838.570145,-108
1643464652815,18838.5701479,-73
1643464652815,18838.5701508,-32
1643464652815,18838.5701537,-82
1643464652815,18838.5701567,-129
1643464652852,18838.5701596,-61
1643464652852,18838.5701625,30
1643464652852,18838.5701659,25
1643464652852,18838.5701688,-21
1643464652852,18838.5701717,-40
1643464652852,18838.5701745,-68
1643464652852,18838.5701774,-61
1643464652852,18838.5701803,-16
1643464652852,18838.5701832,-18
1643464652852,18838.5701861,-51
1643464652884,18838.570189,-58
1643464652884,18838.5701919,-30
1643464652884,18838.5701947,11
1643464652884,18838.5701976,18
1643464653245,18838.5702005,7
1643464653245,18838.5702035,4
1643464653245,18838.5702064,-18
1643464653245,18838.5702093,-37
1643464653245,18838.5702122,-11
1643464653245,18838.5702151,-2
1643464653245,18838.570218,-32
1643464653245,18838.5702208,-37
1643464653245,18838.5702237,0
1643464653245,18838.5702266,2
1643464653277,18839.1699087,-28
1643464653277,18839.1699214,-11
1643464653277,18839.1699264,-9
1643464653277,18839.169932,82
1643464653277,18839.1699354,544
1643464653277,18839.1699405,1295
1643464653277,18839.1699451,1769
1643464653277,18839.1699502,1258
1643464653277,18839.1699532,160
1643464653277,18839.1699574,-216
1643464653313,18839.1699611,30
1643464653313,18839.1699642,-4
1643464653313,18839.1699694,-169
1643464653313,18839.1699724,-155
1643464653313,18839.1699755,-143
1643464653313,18839.1699798,-179
1643464653313,18839.169983,-157
1643464653313,18839.169987,-101
1643464653313,18839.1699909,-73
1643464653313,18839.1699949,-94
1643464653343,18839.1699981,-82
1643464653343,18839.1700032,-28
1643464653343,18839.1700063,-35
1643464653343,18839.1700093,-68
1643464653343,18839.1700135,18
1643464653343,18839.1700184,117
1643464653343,18839.1700231,58
1643464653343,18839.170028,4
1643464653343,18839.170032,106
1643464653343,18839.1700352,200
1643464653376,18839.1700392,153
1643464653376,18839.1700423,91
1643464653376,18839.1700462,129
1643464653376,18839.1700494,174
1643464653376,18839.1700544,171
1643464653376,18839.1700573,127
1643464653376,18839.1700605,25
1643464653376,18839.1700644,-54
1643464653376,18839.1700675,-65
1643464653376,18839.1700715,-77
1643464653407,18839.1700747,-94
1643464653407,18839.1700797,-82
1643464653407,18839.1700842,-70
1643464653407,18839.1700883,-91
1643464653407,18839.1700915,-136
1643464653407,18839.1700964,-155
1643464653407,18839.1700993,-139
1643464653407,18839.1701025,-113
1643464653407,18839.1701066,-101
1643464653407,18839.1701098,-101
1643464653441,18839.1701146,-70
1643464653441,18839.1701176,-44
1643464653441,18839.1701207,-70
1643464653441,18839.1701249,-73
1643464653441,18839.1701279,-44
1643464653441,18839.170133,-58
1643464653441,18839.1701361,-68
1643464653441,18839.1701392,-63
1643464653441,18839.1701442,-108
1643464653441,18839.1701473,-131
1643464653474,18839.1701514,-80
1643464653474,18839.1701544,-30
1643464653474,18839.1701584,-30
1643464653474,18839.1701615,-49
1643464653768,18839.1701669,-80
1643464653768,18839.1701709,-106
1643464653768,18839.170174,-73
1643464653768,18839.170177,-54
1643464653768,18839.1701799,-89
1643464653768,18839.1701828,-96
1643464653768,18839.1701857,-58
1643464653768,18839.1701885,-32
1643464653768,18839.1701915,-32
1643464653768,18839.7202879,-32
1643464653802,18839.7203015,-23
1643464653802,18839.7203069,-49
1643464653802,18839.7203122,-82
1643464653802,18839.7203153,-42
1643464653802,18839.7203185,2
1643464653802,18839.7203235,-16
1643464653802,18839.7203286,-28
1643464653802,18839.7203336,-4
1643464653802,18839.7203377,4
1643464653802,18839.7203427,11
1643464653836,18839.7203462,-14
1643464653836,18839.7203512,-56
1643464653836,18839.7203544,14
1643464653836,18839.7203595,294
1643464653836,18839.7203648,874
1643464653836,18839.7203697,1519
1643464653836,18839.7203729,1368
1643464653836,18839.7203772,339
1643464653836,18839.7203804,-228
1643464653836,18839.7203859,-9
1643464653871,18839.7203892,0
1643464653871,18839.7203952,-209
1643464653871,18839.7203985,-155
1643464653871,18839.7204028,-75
1643464653871,18839.7204072,-117
1643464653871,18839.7204104,-98
1643464653871,18839.7204144,-37
1643464653871,18839.7204176,-4
1643464653871,18839.7204216,-25
1643464653871,18839.7204248,-103
1643464653903,18839.7204288,-94
1643464653903,18839.720432,-4
1643464653903,18839.7204361,25
1643464653903,18839.7204394,32
1643464653903,18839.7204434,56
1643464653903,18839.7204466,61
1643464653903,18839.7204506,68
1643464653903,18839.7204538,113
1643464653903,18839.7204579,160
1643464653903,18839.7204611,176
1643464653939,18839.7204651,176
1643464653939,18839.7204683,179
1643464653939,18839.7204724,174
1643464653939,18839.7204756,150
1643464653939,18839.7204795,113
1643464653939,18839.7204828,63
1643464653939,18839.720486,28
1643464653939,18839.7204892,-2
1643464653939,18839.7204923,-68
1643464653939,18839.720497,-131
1643464653970,18839.7205015,-136
1643464653970,18839.7205047,-113
1643464653970,18839.7205087,-103
1643464653970,18839.7205119,-124
1643464653970,18839.7205159,-129
1643464653970,18839.7205191,-65
1643464653970,18839.7205233,-14
1643464653970,18839.7205264,-63
1643464653970,18839.7205304,-127
1643464653970,18839.7205336,-94
1643464654006,18839.7205375,-40
1643464654006,18839.7205407,-61
1643464654006,18839.7205447,-94
1643464654006,18839.720548,-65
1643464654434,18839.7205519,-44
1643464654434,18839.720555,-63
1643464654434,18839.7205581,-63
1643464654434,18839.7205612,-51
1643464654434,18839.7205643,-61
1643464654434,18839.7205672,-54
1643464654434,18839.7205702,-44
1643464654434,18839.7205733,-56
1643464654434,18840.3719339,-51
1643464654434,18840.3719447,-44
1643464654467,18840.3719483,-73
1643464654467,18840.3719513,-106
1643464654467,18840.3719542,-101
1643464654467,18840.3719571,-61
1643464654467,18840.37196,-40
1643464654467,18840.371963,-44
1643464654467,18840.3719659,-16
1643464654467,18840.3719689,28
1643464654467,18840.3719719,-25
1643464654467,18840.3719748,-120
1643464654500,18840.3719777,-91
1643464654500,18840.3719805,-14
1643464654500,18840.3719835,-28
1643464654500,18840.3719869,-44
1643464654500,18840.3719899,-11
1643464654500,18840.3719928,-25
1643464654500,18840.3719959,-96
1643464654500,18840.371999,-87
1643464654500,18840.3720019,-25
1643464654500,18840.3720047,-40
1643464654532,18840.3720078,-18
1643464654532,18840.3720108,289
1643464654532,18840.3720138,895
1643464654532,18840.3720167,1439
1643464654532,18840.3720197,1291
1643464654532,18840.3720226,412
1643464654532,18840.3720257,-150
1643464654532,18840.3720286,-61
1643464654532,18840.3720315,-28
1643464654532,18840.3720344,-143
1643464654567,18840.3720373,-139
1643464654567,18840.3720403,-115
1643464654567,18840.3720433,-108
1643464654567,18840.3720461,-49
1643464654567,18840.3720492,-23
1643464654567,18840.3720521,-44
1643464654567,18840.3720701,-54
1643464654567,18840.372089,-65
1643464654567,18840.3720928,-54
1643464654567,18840.3720958,-11
1643464654601,18840.3720988,21
1643464654601,18840.3721017,44
1643464654601,18840.3721048,82
1643464654601,18840.3721077,110
1643464654601,18840.372111,98
1643464654601,18840.3721139,106
1643464654601,18840.3721167,153
1643464654601,18840.3721196,186
1643464654601,18840.3721225,162
1643464654601,18840.3721254,117
1643464654634,18840.3721284,106
1643464654634,18840.3721313,117
1643464654634,18840.3721342,106
1643464654634,18840.3721371,65
1643464654634,18840.3721401,28
1643464654634,18840.372143,-21
1643464654634,18840.372146,-89
1643464654634,18840.3721489,-101
1643464654634,18840.3721519,-80
1643464654634,18840.372155,-115
1643464654667,18840.3721579,-124
1643464654667,18840.372161,-73
1643464654667,18840.3721639,-77
1643464654667,18840.3721668,-122
1643464654871,18840.3721698,-117
1643464654871,18840.3721727,-80
1643464654871,18840.3721756,-73
1643464654871,18840.3721786,-68
1643464654871,18840.3721816,-18
1643464654871,18840.3721846,9
1643464654871,18840.3721876,-18
1643464654871,18840.8201132,-35
1643464654871,18840.820126,-25
1643464654871,18840.8201315,-37
1643464654921,18840.8201367,-58
1643464654921,18840.8201417,-70
1643464654921,18840.8201464,-80
1643464654921,18840.8201513,-61
1643464654921,18840.8201563,-35
1643464654921,18840.8201593,-37
1643464654921,18840.8201624,-40
1643464654921,18840.8201675,-44
1643464654921,18840.8201705,-77
1643464654921,18840.8201737,-98
1643464654956,18840.8201786,-73
1643464654956,18840.8201817,-32
1643464654956,18840.8201848,-25
1643464654956,18840.8201892,-49
1643464654956,18840.8201941,-49
1643464654956,18840.8201989,-35
1643464654956,18840.8202036,-25
1643464654956,18840.8202071,7
1643464654956,18840.8202104,4
1643464654956,18840.8202155,-65
1643464654989,18840.8202203,-77
1643464654989,18840.8202251,-2
1643464654989,18840.8202281,-2
1643464654989,18840.8202313,-68
1643464654989,18840.8202362,-58
1643464654989,18840.8202392,-58
1643464654989,18840.8202423,-113
1643464654989,18840.8202464,0
1643464654989,18840.8202495,388
1643464654989,18840.8202546,977
1643464655018,18840.820259,1517
1643464655018,18840.8202644,1333
1643464655018,18840.8202675,388
1643464655018,18840.8202715,-155
1643464655018,18840.8202746,-25
1643464655018,18840.8202796,-80
1643464655018,18840.8202827,-268
1643464655018,18840.8202858,-162
1643464655018,18840.82029,-32
1643464655018,18840.8202931,-84
1643464655046,18840.8202971,-143
1643464655046,18840.8203003,-103
1643464655046,18840.8203053,-37
1643464655046,18840.8203092,-70
1643464655046,18840.8203122,-120
1643464655046,18840.820317,-63
1643464655046,18840.8203199,0
1643464655046,18840.820323,-7
1643464655046,18840.8203262,16
1643464655046,18840.8203307,96
1643464655075,18840.8203339,117
1643464655075,18840.8203379,82
1643464655075,18840.820341,110
1643464655075,18840.8203452,202
1643464655075,18840.820349,197
1643464655075,18840.8203522,89
1643464655075,18840.8203553,68
1643464655075,18840.8203584,122
1643464655075,18840.8203621,136
1643464655075,18840.8203652,89
1643464655105,18840.8203796,-7
1643464655105,18840.8203862,-58
1643464655105,18840.8203894,-56
1643464655105,18840.8203925,-115
1643464655585,18840.820396,-139
1643464655585,18840.820399,-68
1643464655585,18840.8204019,-75
1643464655585,18840.8204049,-141
1643464655585,18840.8204078,-122
1643464655585,18840.8204106,-56
1643464655585,18841.5148684,-40
1643464655585,18841.5148836,-82
1643464655585,18841.5148873,-117
1643464655585,18841.5148904,-106
1643464655619,18841.5148935,-94
1643464655619,18841.5148964,-106
1643464655619,18841.5148993,-110
1643464655619,18841.5149022,-108
1643464655619,18841.5149052,-129
1643464655619,18841.514908,-113
1643464655619,18841.5149113,-44
1643464655619,18841.5149142,-35
1643464655619,18841.514917,-96
1643464655619,18841.5149199,-146
1643464655651,18841.5149227,-146
1643464655651,18841.5149255,-129
1643464655651,18841.5149284,-115
1643464655651,18841.5149312,-108
1643464655651,18841.5149341,-124
1643464655651,18841.514937,-136
1643464655651,18841.5149399,-103
1643464655651,18841.5149428,-61
1643464655651,18841.5149457,-42
1643464655651,18841.5149485,-49
1643464655702,18841.5149514,-42
1643464655702,18841.5149543,-25
1643464655702,18841.5149571,-37
1643464655702,18841.5149601,-32
1643464655702,18841.5149631,7
1643464655702,18841.5149661,2
1643464655702,18841.5149903,-63
1643464655702,18841.5150078,-103
1643464655702,18841.5150123,-98
1643464655702,18841.5150156,-82
1643464655733,18841.5150186,-58
1643464655733,18841.5150341,-63
1643464655733,18841.5150385,-63
1643464655733,18841.5150415,164
1643464655733,18841.5150444,784
1643464655733,18841.5150472,1496
1643464655733,18841.51505,1616
1643464655733,18841.5150528,831
1643464655733,18841.5150557,-7
1643464655733,18841.5150586,-110
1643464655766,18841.5150614,-73
1643464655766,18841.5150643,-240
1643464655766,18841.5150671,-216
1643464655766,18841.5150699,-115
1643464655766,18841.5150727,-157
1643464655766,18841.5150756,-164
1643464655766,18841.5150784,-89
1643464655766,18841.5150812,-51
1643464655766,18841.515084,-18
1643464655766,18841.5150869,9
1643464655801,18841.5150897,-18
1643464655801,18841.5150925,-32
1643464655801,18841.5150953,-11
1643464655801,18841.5150981,-4
1643464655801,18841.5151009,-2
1643464655801,18841.5151038,14
1643464655801,18841.515107,54
1643464655801,18841.5151098,87
1643464655801,18841.5151127,96
1643464655801,18841.5151155,127
1643464655834,18841.5151184,176
1643464655834,18841.5151212,190
1643464655834,18841.5151243,164
1643464655834,18841.5151271,143
1643464655988,18841.5151299,139
1643464655988,18841.5151327,139
1643464655988,18841.5151355,80
1643464655988,18841.5151384,-68
1643464655988,18841.5151413,-139
1643464655988,18841.9198543,-94
1643464655988,18841.9198778,-91
1643464655988,18841.9198838,-155
1643464655988,18841.9198874,-146
1643464655988,18841.9198906,-68
1643464656019,18841.9198935,-73
1643464656019,18841.9198999,-134
1643464656019,18841.9199028,-131
1643464656019,18841.9199058,-65
1643464656019,18841.9199086,-9
1643464656019,18841.9199115,-11
1643464656019,18841.9199154,-56
1643464656019,18841.9199183,-91
1643464656019,18841.9199212,-117
1643464656019,18841.9199312,-122
1643464656052,18841.9199492,-68
1643464656052,18841.9199565,-30
1643464656052,18841.9199608,-65
1643464656052,18841.9199638,-58
1643464656052,18841.919992,-21
1643464656052,18841.9199987,-49
1643464656052,18841.9200018,-84
1643464656052,18841.9200049,-80
1643464656052,18841.9200143,-54
1643464656052,18841.9200175,-35
1643464656087,18841.9200206,-65
1643464656087,18841.9200235,-87
1643464656087,18841.9200294,-28
1643464656087,18841.9200332,2
1643464656087,18841.9200373,-58
1643464656087,18841.9200403,-51
1643464656087,18841.9200433,21
1643464656087,18841.9200471,16
1643464656087,18841.9200502,-16
1643464656087,18841.9200549,-11
1643464656120,18841.9200578,-23
1643464656120,18841.9200608,-42
1643464656120,18841.920067,-16
1643464656120,18841.9200711,11
1643464656120,18841.920074,-28
1643464656120,18841.9200768,-51
1643464656120,18841.9200799,209
1643464656120,18841.9200829,848
1643464656120,18841.920088,1557
1643464656120,18841.9200909,1755
1643464656153,18841.920094,987
1643464656153,18841.9200978,-18
1643464656153,18841.9201008,-214
1643464656153,18841.9201048,-68
1643464656153,18841.9201081,-174
1643464656153,18841.920111,-204
1643464656153,18841.9201146,-139
1643464656153,18841.9201186,-167
1643464656153,18841.9201216,-176
1643464656153,18841.9201254,-150
1643464656186,18841.9201284,-148
1643464656186,18841.9201322,-127
1643464656186,18841.9201351,-98
1643464656186,18841.920138,-80
1643464656186,18841.920141,-40
1643464656186,18841.9201738,-2
1643464656186,18841.9202576,0
1643464656186,18841.9202858,21
1643464656186,18841.9202939,58
1643464656186,18841.9202975,70
1643464656220,18841.9203139,89
1643464656220,18841.920319,103
1643464656220,18841.9204485,94
1643464656220,18841.9204563,73
1643464656684,18841.9204596,65
1643464656684,18841.9204627,106
1643464656684,18841.9204656,127
1643464656684,18841.9204685,96
1643464656684,18842.6148816,77
1643464656684,18842.6148947,16
1643464656684,18842.6148986,-94
1643464656684,18842.6149039,-117
1643464656684,18842.614907,-127
1643464656684,18842.6149101,-186
1643464656718,18842.6149143,-181
1643464656718,18842.6149174,-127
1643464656718,18842.6149216,-117
1643464656718,18842.6149247,-155
1643464656718,18842.6149296,-197
1643464656718,18842.6149346,-186
1643464656718,18842.6149396,-110
1643464656718,18842.6149444,-89
1643464656718,18842.6149493,-150
1643464656718,18842.6149526,-157
1643464656754,18842.6149577,-101
1643464656754,18842.614961,-82
1643464656754,18842.6149659,-82
1643464656754,18842.6149703,-77
1643464656754,18842.6149752,-101
1643464656754,18842.6149799,-96
1643464656754,18842.614985,-54
1643464656754,18842.6149896,-37
1643464656754,18842.614995,-58
1643464656754,18842.6149997,-89
1643464656802,18842.6150038,-89
1643464656802,18842.6150069,-44
1643464656802,18842.6150108,-4
1643464656802,18842.615014,-2
1643464656802,18842.6150191,-35
1643464656802,18842.6150239,-70
1643464656802,18842.6150289,-58
1643464656802,18842.6150319,-40
1643464656802,18842.615035,-106
1643464656802,18842.6150392,-153
1643464656834,18842.6150423,-70
1643464656834,18842.6150463,-28
1643464656834,18842.6150494,-87
1643464656834,18842.6150532,-75
1643464656834,18842.6150569,-32
1643464656834,18842.6150601,-70
1643464656834,18842.6150651,-84
1643464656834,18842.6150697,58
1643464656834,18842.6150748,454
1643464656834,18842.6150781,1095
1643464656866,18842.6150813,1524
1643464656866,18842.6150864,1074
1643464656866,18842.6150911,120
1643464656866,18842.615096,-181
1643464656866,18842.615099,11
1643464656866,18842.6151021,-113
1643464656866,18842.6151072,-292
1643464656866,18842.6151147,-176
1643464656866,18842.6151197,-77
1643464656866,18842.6151226,-164
1643464656894,18842.6151256,-219
1643464656894,18842.6151286,-160
1643464656894,18842.6151315,-96
1643464656894,18842.6151344,-56
1643464656894,18842.6151373,-54
1643464656894,18842.6151402,-44
1643464656894,18842.6151432,21
1643464656894,18842.6151467,61
1643464656894,18842.6151498,-9
1643464656894,18842.6151527,-94
1643464656925,18842.6151556,-68
1643464656925,18842.6151588,18
1643464656925,18842.6151632,58
1643464656925,18842.6151662,47
1643464657168,18842.6151691,21
1643464657168,18842.615172,44
1643464657168,18842.6151748,127
1643464657168,18843.1180721,171
1643464657168,18843.1180843,96
1643464657168,18843.118088,-21
1643464657168,18843.1180911,-40
1643464657168,18843.1180942,-56
1643464657168,18843.1180972,-176
1643464657168,18843.1181002,-254
1643464657198,18843.1181052,-242
1643464657198,18843.1181081,-193
1643464657198,18843.1181435,-103
1643464657198,18843.1181654,-127
1643464657198,18843.1181716,-261
1643464657198,18843.1182016,-233
1643464657198,18843.1182079,-65
1643464657198,18843.1182109,-61
1643464657198,18843.1182138,-216
1643464657198,18843.1182166,-280
1643464657230,18843.1182194,-153
1643464657230,18843.1182221,11
1643464657230,18843.118225,-4
1643464657230,18843.1182278,-122
1643464657230,18843.1182306,-153
1643464657230,18843.1182422,-150
1643464657230,18843.1182496,-113
1643464657230,18843.1182629,-25
1643464657230,18843.1182779,-87
1643464657230,18843.1182832,-214
1643464657257,18843.118288,-141
1643464657257,18843.118292,0
1643464657257,18843.1182964,51
1643464657257,18843.1183004,65
1643464657257,18843.1183035,37
1643464657257,18843.1183075,-11
1643464657257,18843.1183106,-16
1643464657257,18843.1183146,-42
1643464657257,18843.1183184,-124
1643464657257,18843.1183223,-136
1643464657290,18843.1183264,-54
1643464657290,18843.1183306,-23
1643464657290,18843.1183341,-101
1643464657290,18843.1183372,-174
1643464657290,18843.1183413,-115
1643464657290,18843.1183444,-7
1643464657290,18843.1183484,-2
1643464657290,18843.1183515,0
1643464657290,18843.1183546,195
1643464657290,18843.1183582,636
1643464657327,18843.1183613,1156
1643464657327,18843.1183643,1265
1643464657327,18843.1183687,624
1643464657327,18843.1183718,-82
1643464657327,18843.1183756,-134
1643464657327,18843.1183787,47
1643464657327,18843.1183839,-11
1643464657327,18843.1183868,-139
1643464657327,18843.1183899,-167
1643464657327,18843.118393,-113
1643464657355,18843.1183973,-56
1643464657355,18843.118401,-61
1643464657355,18843.1184042,-108
1643464657355,18843.1184082,-110
1643464657355,18843.1184113,-32
1643464657355,18843.1184153,23
1643464657355,18843.1184184,-21
1643464657355,18843.1184215,-80
1643464657355,18843.1184244,-16
1643464657355,18843.1184275,115
1643464657388,18843.1184307,101
1643464657388,18843.1184349,-2
1643464657388,18843.118438,98
1643464657388,18843.1184421,301
1643464657685,18843.118445,308
1643464657685,18843.1184479,183
1643464657685,18843.6230686,108
1643464657685,18843.6230815,139
1643464657685,18843.623085,183
1643464657685,18843.6230882,115
1643464657685,18843.6230914,14
1643464657685,18843.6230956,0
1643464657685,18843.6230989,-11
1643464657685,18843.6231036,-80
1643464657718,18843.6231067,-120
1643464657718,18843.6231098,-103
1643464657718,18843.623114,-108
1643464657718,18843.623117,-164
1643464657718,18843.623121,-157
1643464657718,18843.623124,-56
1643464657718,18843.623127,-23
1643464657718,18843.6231299,-106
1643464657718,18843.6231328,-169
1643464657718,18843.6231359,-190
1643464657751,18843.623141,-209
1643464657751,18843.6231439,-179
1643464657751,18843.6231469,-101
1643464657751,18843.6231499,-42
1643464657751,18843.6231529,-9
1643464657751,18843.6231558,2
1643464657751,18843.6231589,-9
1643464657751,18843.6231632,-16
1643464657751,18843.6231661,-35
1643464657751,18843.6231691,-54
1643464657784,18843.6231731,-47
1643464657784,18843.6231762,-47
1643464657784,18843.623181,-30
1643464657784,18843.6231838,21
1643464657784,18843.6231869,-44
1643464657784,18843.6231916,-134
1643464657784,18843.6231945,-11
1643464657784,18843.6231976,87
1643464657784,18843.6232016,-42
1643464657784,18843.6232046,-98
1643464657818,18843.6232076,32
1643464657818,18843.6232125,61
1643464657818,18843.6232153,-42
1643464657818,18843.6232183,-35
1643464657818,18843.6232225,2
1643464657818,18843.6232254,-51
1643464657818,18843.6232304,2
1643464657818,18843.6232337,280
1643464657818,18843.6232368,760
1643464657818,18843.6232398,1349
1643464657852,18843.6232428,1510
1643464657852,18843.6232457,803
1643464657852,18843.6232487,-30
1643464657852,18843.6232535,-131
1643464657852,18843.6232563,9
1643464657852,18843.6232593,-141
1643464657852,18843.6232641,-223
1643464657852,18843.6232689,-87
1643464657852,18843.623273,-21
1643464657852,18843.623276,-91
1643464657884,18843.6232799,-131
1643464657884,18843.623283,-89
1643464657884,18843.6232878,-77
1643464657884,18843.6232924,-110
1643464657884,18843.6232979,-94
1643464657884,18843.6233014,-49
1643464657884,18843.623306,-35
1643464657884,18843.6233089,-16
1643464657884,18843.6233129,-11
1643464657884,18843.6233159,-28
1643464657918,18843.623321,32
1643464657918,18843.6233239,124
1643464657918,18843.6233283,153
1643464657918,18843.6233323,153
1643464658364,18843.6233362,106
1643464658364,18844.2698904,49
1643464658364,18844.269904,77
1643464658364,18844.2699077,148
1643464658364,18844.2699108,120
1643464658364,18844.2699159,4
1643464658364,18844.2699192,-40
1643464658364,18844.2701292,-44
1643464658364,18844.271249,-139
1643464658364,18844.2712648,-216
1643464658396,18844.2712686,-179
1643464658396,18844.2712716,-148
1643464658396,18844.2712744,-195
1643464658396,18844.2712773,-261
1643464658396,18844.2712803,-249
1643464658396,18844.2712831,-155
1643464658396,18844.271286,-101
1643464658396,18844.2714794,-129
1643464658396,18844.2716901,-171
1643464658396,18844.2716954,-162
1643464658428,18844.2716986,-110
1643464658428,18844.2717015,-75
1643464658428,18844.2717045,-68
1643464658428,18844.2717073,-49
1643464658428,18844.2717102,-30
1643464658428,18844.2717132,-56
1643464658428,18844.2717163,-70
1643464658428,18844.2717192,-25
1643464658428,18844.2717221,-11
1643464658428,18844.2717251,-47
1643464658461,18844.2717279,-75
1643464658461,18844.2717307,-40
1643464658461,18844.2717337,14
1643464658461,18844.2717365,-23
1643464658461,18844.2717394,-96
1643464658461,18844.2717423,-54
1643464658461,18844.2717451,35
1643464658461,18844.2717479,42
1643464658461,18844.2717509,0
1643464658461,18844.2717539,7
1643464658492,18844.2717567,49
1643464658492,18844.2717892,63
1643464658492,18844.2718743,7
1643464658492,18844.2718813,-94
1643464658492,18844.2718844,-84
1643464658492,18844.2718873,261
1643464658492,18844.2718906,951
1643464658492,18844.2718934,1620
1643464658492,18844.2718963,1630
1643464658492,18844.2718991,725
1643464658520,18844.271902,-108
1643464658520,18844.2719049,-106
1643464658520,18844.2719077,-14
1643464658520,18844.2719106,-179
1643464658520,18844.271929,-155
1643464658520,18844.2719342,-61
1643464658520,18844.2719374,-98
1643464658520,18844.2719404,-101
1643464658520,18844.2719433,-70
1643464658520,18844.2719461,-103
1643464658552,18844.271949,-134
1643464658552,18844.2719518,-127
1643464658552,18844.2719546,-106
1643464658552,18844.2719574,-70
1643464658552,18844.2719602,-37
1643464658552,18844.271963,2
1643464658552,18844.2719659,68
1643464658552,18844.2719687,110
1643464658552,18844.2719716,110
1643464658552,18844.2719745,101
1643464658584,18844.2719773,82
1643464658584,18844.2719805,61
1643464658584,18844.2719833,75
1643464658584,18844.2719861,101
1643464659383,18844.9150192,84
1643464659383,18844.9150325,32
1643464659383,18844.9150363,-4
1643464659383,18844.9150396,0
1643464659383,18844.9150439,-7
1643464659383,18844.9150472,-61
1643464659383,18844.9150504,-101
1643464659383,18844.9150555,-94
1643464659383,18844.9150586,-80
1643464659383,18844.9150617,-87
1643464659416,18844.9150666,-134
1643464659416,18844.9150699,-171
1643464659416,18844.9150748,-141
1643464659416,18844.9150789,-115
1643464659416,18844.9150838,-127
1643464659416,18844.9150869,-136
1643464659416,18844.91509,-134
1643464659416,18844.9150951,-84
1643464659416,18844.9151,-11
1643464659416,18844.9151049,-23
1643464659450,18844.9151098,-80
1643464659450,18844.9151147,-101
1643464659450,18844.9151193,-98
1643464659450,18844.9151241,-82
1643464659450,18844.9151279,-61
1643464659450,18844.9151311,-84
1643464659450,18844.9151362,-117
1643464659450,18844.9151408,-101
1643464659450,18844.9151457,-80
1643464659450,18844.9151489,-51
1643464659483,18844.9151529,-4
1643464659483,18844.9151561,-21
1643464659483,18844.9151601,-56
1643464659483,18844.9151633,-32
1643464659483,18844.9151681,-23
1643464659483,18844.9151728,-63
1643464659483,18844.9151777,-84
1643464659483,18844.9151813,-82
1643464659483,18844.9151845,-73
1643464659483,18844.9151898,-58
1643464659515,18844.9151931,-84
1643464659515,18844.915198,-70
1643464659515,18844.915201,195
1643464659515,18844.9152042,760
1643464659515,18844.9152091,1399
1643464659515,18844.9152137,1569
1643464659515,18844.9152187,848
1643464659515,18844.9152218,-28
1643464659515,18844.915226,-134
1643464659515,18844.9152302,30
1643464659549,18844.9152335,-101
1643464659549,18844.9152383,-181
1643464659549,18844.9152413,-108
1643464659549,18844.9152445,-96
1643464659549,18844.9152495,-94
1643464659549,18844.9152526,-47
1643464659549,18844.9152558,-44
1643464659549,18844.9152607,-96
1643464659549,18844.9152653,-124
1643464659549,18844.9152702,-108
1643464659584,18844.915274,-84
1643464659584,18844.9152772,-63
1643464659584,18844.9152821,-28
1643464659584,18844.9152859,14
1643464659584,18844.9152908,42
1643464659584,18844.9152953,70
1643464659584,18844.9153003,98
1643464659584,18844.9153034,96
1643464659584,18844.9153083,80
1643464659584,18844.9153113,58
1643464659616,18844.9153145,47
1643464659616,18844.9153194,56
1643464659616,18844.9153243,44
1643464659616,18845.3209743,16
1643464660019,18845.3209861,4
1643464660019,18845.3209899,-28
1643464660019,18845.3210587,-89
1643464660019,18845.3210712,-136
1643464660019,18845.3210751,-124
1643464660019,18845.3210783,-80
1643464660019,18845.3210814,-77
1643464660019,18845.3210843,-101
1643464660019,18845.3210873,-94
1643464660019,18845.3210912,-94
1643464660058,18845.3210943,-113
1643464660058,18845.3210972,-113
1643464660058,18845.3211002,-94
1643464660058,18845.3211031,-77
1643464660058,18845.321106,-84
1643464660058,18845.3211089,-122
1643464660058,18845.3211118,-124
1643464660058,18845.3211146,-75
1643464660058,18845.3211176,-54
1643464660058,18845.3211204,-54
1643464660093,18845.3211233,-30
1643464660093,18845.3211263,-32
1643464660093,18845.3211291,-68
1643464660093,18845.321132,-84
