unixTime,lslTime,ECG
1643464094518,18279.9697898,4
1643464094518,18279.9697928,-4
1643464094518,18279.9697957,-14
1643464094518,18279.9697987,-9
1643464094518,18279.9698017,-4
1643464094518,18279.9698046,-4
1643464094518,18279.9698076,-7
1643464094518,18279.9698105,-11
1643464094518,18279.9698135,-30
1643464094518,18279.9699116,-44
1643464094540,18279.969949,-37
1643464094540,18279.9699589,-25
1643464094540,18279.9699647,-28
1643464094540,18279.969968,-30
1643464094540,18279.9699739,-32
1643464094540,18279.9699772,-44
1643464094540,18279.969982,-49
1643464094540,18279.9699852,-37
1643464094540,18279.9699901,-23
1643464094540,18279.9699933,-18
1643464094561,18279.9699983,-7
1643464094561,18279.9700016,11
1643464094561,18279.9700065,23
1643464094561,18279.9700106,4
1643464094561,18279.9700156,-18
1643464094561,18279.9700196,-11
1643464094561,18279.9700247,-2
1643464094561,18279.9700286,-9
1643464094561,18279.9700341,-14
1643464094561,18279.9700379,-7
1643464094590,18279.970043,-2
1643464094590,18279.9700463,0
1643464094590,18279.9700512,-2
1643464094590,18279.9700544,-7
1643464094590,18279.9700594,14
1643464094590,18279.970063,186
1643464094590,18279.9700663,638
1643464094590,18279.9700694,1279
1643464094590,18279.9700723,1623
1643464094590,18279.9701802,1081
1643464094608,18279.9701896,150
1643464094608,18279.9701937,-91
1643464094608,18279.9701969,54
1643464094608,18279.9701998,-51
1643464094608,18279.9702027,-136
1643464094608,18279.9702057,-73
1643464094608,18279.9702086,-73
1643464094608,18279.9702115,-96
1643464094608,18279.9702144,-75
1643464094608,18279.9702173,-65
1643464094627,18279.9702211,-70
1643464094627,18279.970224,-49
1643464094627,18279.9702269,-28
1643464094627,18279.9702305,-18
1643464094627,18279.9702335,-4
1643464094627,18279.9702372,16
1643464094627,18279.9702402,35
1643464094627,18279.9702439,56
1643464094627,18279.9702471,73
1643464094627,18279.9702499,89
1643464094648,18279.9702528,106
1643464094648,18280.468789,120
1643464094648,18280.4688017,129
1643464094648,18280.4688053,129
1643464094648,18280.4688096,129
1643464094648,18280.4688127,127
1643464094648,18280.4688165,108
1643464094648,18280.4688197,82
1643464094648,18280.4688235,54
1643464094648,18280.4688266,18
1643464094671,18280.4688298,-21
1643464094671,18280.4688326,-49
1643464094671,18280.4688354,-70
1643464094671,18280.4688382,-91
1643464095028,18280.4688411,-101
1643464095028,18280.4688441,-96
1643464095028,18280.468865,-91
1643464095028,18280.4689229,-87
1643464095028,18280.4689304,-84
1643464095028,18280.4689339,-82
1643464095028,18280.4689368,-77
1643464095028,18280.4689397,-70
1643464095028,18280.4689425,-61
1643464095028,18280.4689518,-51
1643464095059,18280.4689554,-44
1643464095059,18280.4689584,-49
1643464095059,18280.4689612,-68
1643464095059,18280.4689639,-77
1643464095059,18280.4689668,-63
1643464095059,18280.4689696,-54
1643464095059,18280.4689722,-54
1643464095059,18280.468975,-47
1643464095059,18280.4689777,-42
1643464095059,18280.4689805,-44
1643464095076,18280.4689832,-47
1643464095076,18280.4689859,-44
1643464095076,18280.4689887,-47
1643464095076,18280.4689914,-49
1643464095076,18280.4689941,-47
1643464095076,18280.4689968,-44
1643464095076,18280.4689995,-44
1643464095076,18280.4690022,-40
1643464095076,18280.4690049,-35
1643464095076,18280.4690076,-37
1643464095095,18280.4690104,-40
1643464095095,18280.469013,-37
1643464095095,18280.4690158,-30
1643464095095,18280.4690186,-30
1643464095095,18280.4690213,-32
1643464095095,18280.4690241,-28
1643464095095,18280.4690268,-23
1643464095095,18280.4690295,-32
1643464095095,18280.4690322,-40
1643464095095,18280.469035,-37
1643464095114,18280.4690377,-37
1643464095114,18280.4690403,-44
1643464095114,18280.469043,-44
1643464095114,18280.4690458,-44
1643464095114,18280.4690493,-42
1643464095114,18280.4690522,-40
1643464095114,18280.4690549,-35
1643464095114,18280.4690576,-32
1643464095114,18280.4690604,-32
1643464095114,18280.4690631,-35
1643464095138,18280.4690658,-28
1643464095138,18280.4690686,-21
1643464095138,18280.4690712,-23
1643464095138,18280.469074,-23
1643464095138,18280.4690767,-16
1643464095138,18280.4690795,-14
1643464095138,18280.4690822,-14
1643464095138,18280.4690849,-11
1643464095138,18280.4690876,-11
1643464095138,18280.4690904,-14
1643464095160,18280.9705703,-18
1643464095160,18280.9705823,-25
1643464095160,18280.9705859,-42
1643464095160,18280.970589,-54
1643464095160,18280.9705921,-47
1643464095160,18280.970595,-40
1643464095160,18280.9705979,-32
1643464095160,18280.9706008,-18
1643464095160,18280.9706038,2
1643464095160,18280.9706067,25
1643464095182,18280.9706096,18
1643464095182,18280.9706125,-16
1643464095182,18280.9706154,-25
1643464095182,18280.970619,-9
1643464095581,18280.9706219,-7
1643464095581,18280.9706248,-9
1643464095581,18280.9706277,-7
1643464095581,18280.9706305,-25
1643464095581,18280.9706334,-37
1643464095581,18280.9706362,-21
1643464095581,18280.9706391,-14
1643464095581,18280.970642,-23
1643464095581,18280.970645,54
1643464095581,18280.9706479,362
1643464095606,18280.9706508,902
1643464095606,18280.9706537,1420
1643464095606,18280.9706566,1368
1643464095606,18280.9706595,574
1643464095606,18280.9706624,-82
1643464095606,18280.9706652,-51
1643464095606,18280.9706682,37
1643464095606,18280.970671,-87
1643464095606,18280.9706739,-103
1643464095606,18280.9706768,-49
1643464095627,18280.9706796,-63
1643464095627,18280.9706828,-65
1643464095627,18280.9706857,-37
1643464095627,18280.9706886,-30
1643464095627,18280.9706915,-23
1643464095627,18280.9706943,0
1643464095627,18280.9706972,18
1643464095627,18280.9707001,25
1643464095627,18280.970703,35
1643464095627,18280.9707059,56
1643464095649,18280.9707088,80
1643464095649,18280.9707117,103
1643464095649,18280.9707146,122
1643464095649,18280.9707175,134
1643464095649,18280.9707204,148
1643464095649,18280.9707232,157
1643464095649,18280.9707261,160
1643464095649,18280.970729,157
1643464095649,18280.9707319,157
1643464095649,18280.9707347,148
1643464095672,18280.9707376,122
1643464095672,18280.9707405,87
1643464095672,18280.9707435,42
1643464095672,18280.9707464,-7
1643464095672,18280.9707494,-37
1643464095672,18280.9707558,-61
1643464095672,18280.9707595,-82
1643464095672,18280.9707851,-91
1643464095672,18280.9707915,-91
1643464095672,18280.9707947,-84
1643464095693,18280.9707977,-77
1643464095693,18280.9708005,-77
1643464095693,18280.9708033,-82
1643464095693,18280.9708061,-80
1643464095693,18280.970809,-77
1643464095693,18280.9708117,-75
1643464095693,18280.9708146,-70
1643464095693,18280.9708174,-65
1643464095693,18280.9708214,-58
1643464095693,18281.5201038,-51
1643464095715,18281.520116,-54
1643464095715,18281.5201194,-56
1643464095715,18281.5201226,-49
1643464095715,18281.5201275,-42
1643464095715,18281.5201303,-40
1643464095715,18281.5201334,-40
1643464095715,18281.5201365,-35
1643464095715,18281.5201413,-35
1643464095715,18281.5201444,-56
1643464095715,18281.5201484,-73
1643464095738,18281.5201514,-63
1643464095738,18281.5201562,-56
1643464095738,18281.520159,-56
1643464095738,18281.520162,-51
1643464096187,18281.5201649,-47
1643464096187,18281.5201678,-51
1643464096187,18281.5201705,-54
1643464096187,18281.5201733,-47
1643464096187,18281.5201762,-42
1643464096187,18281.520179,-44
1643464096187,18281.5201818,-40
1643464096187,18281.5201845,-35
1643464096187,18281.5201873,-35
1643464096187,18281.5201901,-32
1643464096209,18281.5201929,-25
1643464096209,18281.5201958,-21
1643464096209,18281.5201985,-18
1643464096209,18281.5202013,-18
1643464096209,18281.5202041,-21
1643464096209,18281.5202069,-18
1643464096209,18281.5202097,-16
1643464096209,18281.5202297,-11
1643464096209,18281.5202457,-14
1643464096209,18281.520277,-21
1643464096227,18281.5202845,-32
1643464096227,18281.5202882,-40
1643464096227,18281.520293,-32
1643464096227,18281.5202961,-18
1643464096227,18281.5202991,-16
1643464096227,18281.5203217,-9
1643464096227,18281.5203441,16
1643464096227,18281.5203523,32
1643464096227,18281.5203558,16
1643464096227,18281.5203607,2
1643464096251,18281.5203637,14
1643464096251,18281.5203668,18
1643464096251,18281.5203709,9
1643464096251,18281.5203739,11
1643464096251,18281.5203769,18
1643464096251,18281.5203809,16
1643464096251,18281.5203839,21
1643464096251,18281.5203889,28
1643464096251,18281.5203919,25
1643464096251,18281.5203949,25
1643464096273,18281.5203989,124
1643464096273,18281.5204019,471
1643464096273,18281.5204102,1067
1643464096273,18281.5204131,1592
1643464096273,18281.5204162,1382
1643464096273,18281.520419,435
1643464096273,18281.5204228,-101
1643464096273,18281.5204272,28
1643464096273,18281.5204312,30
1643464096273,18281.5204343,-108
1643464096299,18281.5204395,-82
1643464096299,18281.5204427,-51
1643464096299,18281.5204457,-89
1643464096299,18281.5204498,-80
1643464096299,18281.5204529,-47
1643464096299,18281.5204575,-42
1643464096299,18281.520489,-32
1643464096299,18281.5204959,-14
1643464096299,18282.1146963,-2
1643464096299,18282.1147095,11
1643464096323,18282.1147135,32
1643464096323,18282.1147189,49
1643464096323,18282.1147219,63
1643464096323,18282.114725,87
1643464096323,18282.1147285,113
1643464096323,18282.1147316,117
1643464096323,18282.1147379,106
1643464096323,18282.1147411,110
1643464096323,18282.1147459,127
1643464096323,18282.114749,127
1643464096342,18282.114754,113
1643464096342,18282.114757,96
1643464096342,18282.1147621,65
1643464096342,18282.1147652,18
1643464096671,18282.1147701,-35
1643464096671,18282.1147731,-82
1643464096671,18282.114776,-113
1643464096671,18282.1147788,-131
1643464096671,18282.1147816,-143
1643464096671,18282.1147844,-148
1643464096671,18282.1147872,-146
1643464096671,18282.11479,-146
1643464096671,18282.1147929,-139
1643464096671,18282.1147958,-127
1643464096693,18282.1147986,-122
1643464096693,18282.1148015,-120
1643464096693,18282.1148043,-110
1643464096693,18282.1149203,-103
1643464096693,18282.1149464,-101
1643464096693,18282.1149517,-94
1643464096693,18282.1149549,-87
1643464096693,18282.1149578,-87
1643464096693,18282.1149607,-84
1643464096693,18282.1149636,-73
1643464096715,18282.1149665,-68
1643464096715,18282.1149694,-63
1643464096715,18282.1149731,-56
1643464096715,18282.114976,-51
1643464096715,18282.1149789,-51
1643464096715,18282.1149818,-47
1643464096715,18282.1149847,-37
1643464096715,18282.1149876,-35
1643464096715,18282.1149914,-30
1643464096715,18282.1149943,-28
1643464096738,18282.1149973,-28
1643464096738,18282.1150002,-28
1643464096738,18282.1150031,-25
1643464096738,18282.1150059,-23
1643464096738,18282.1150088,-21
1643464096738,18282.1150117,-18
1643464096738,18282.1150146,-18
1643464096738,18282.1150175,-21
1643464096738,18282.1150204,-18
1643464096738,18282.1150233,-18
1643464096760,18282.1150265,-18
1643464096760,18282.1150293,-14
1643464096760,18282.1150322,-7
1643464096760,18282.1150351,-9
1643464096760,18282.115038,-14
1643464096760,18282.1150409,-14
1643464096760,18282.1150438,-16
1643464096760,18282.1150467,-25
1643464096760,18282.1150496,-28
1643464096760,18282.1150524,-25
1643464096782,18282.1150554,-18
1643464096782,18282.1150582,-7
1643464096782,18282.1150612,14
1643464096782,18282.1150642,30
1643464096782,18282.1150679,47
1643464096782,18282.1150707,44
1643464096782,18282.1150736,18
1643464096782,18282.6202329,14
1643464096782,18282.6202464,32
1643464096782,18282.62025,32
1643464096806,18282.6202533,25
1643464096806,18282.6202585,28
1643464096806,18282.6202615,23
1643464096806,18282.6202646,2
1643464096806,18282.6202695,-11
1643464096806,18282.6202742,-4
1643464096806,18282.6202784,0
1643464096806,18282.6202831,68
1643464096806,18282.6202874,362
1643464096806,18282.6202923,911
1643464096827,18282.6202965,1477
1643464096827,18282.6203013,1444
1643464096827,18282.6203043,581
1643464096827,18282.6203074,-84
1643464097338,18282.6203123,-25
1643464097338,18282.6203153,28
1643464097338,18282.6203183,-113
1643464097338,18282.6203211,-108
1643464097338,18282.620324,-58
1643464097338,18282.6203268,-89
1643464097338,18282.6203296,-84
1643464097338,18282.6203325,-51
1643464097338,18282.6203354,-61
1643464097338,18282.6203382,-61
1643464097361,18282.6203411,-35
1643464097361,18282.6203448,-21
1643464097361,18282.6203477,-9
1643464097361,18282.6203506,9
1643464097361,18282.6203536,28
1643464097361,18282.6203567,47
1643464097361,18282.6203598,70
1643464097361,18282.6203929,89
1643464097361,18282.6203995,108
1643464097361,18282.6204027,129
1643464097382,18282.6204067,148
1643464097382,18282.6204115,160
1643464097382,18282.6204146,157
1643464097382,18282.6204176,146
1643464097382,18282.6204216,131
1643464097382,18282.6204455,106
1643464097382,18282.6204527,61
1643464097382,18282.6204568,2
1643464097382,18282.620461,-51
1643464097382,18282.6204641,-91
1643464097404,18282.6204681,-120
1643464097404,18282.6204965,-134
1643464097404,18282.6205123,-131
1643464097404,18282.6205181,-129
1643464097404,18282.6205215,-134
1643464097404,18282.6205261,-129
1643464097404,18282.6205309,-120
1643464097404,18282.6205357,-115
1643464097404,18282.6205405,-108
1643464097404,18282.6205454,-96
1643464097428,18282.6205499,-91
1643464097428,18282.6205542,-91
1643464097428,18282.620559,-84
1643464097428,18282.6205619,-73
1643464097428,18282.6205648,-63
1643464097428,18282.6205679,-56
1643464097428,18282.6205708,-54
1643464097428,18282.6205736,-56
1643464097428,18282.6205764,-49
1643464097428,18282.6205793,-42
1643464097448,18282.6205821,-42
1643464097448,18282.6205982,-37
1643464097448,18282.6206041,-32
1643464097448,18282.6206071,-30
1643464097448,18282.6206434,-30
1643464097448,18282.6206528,-25
1643464097448,18283.2706241,-21
1643464097448,18283.270638,-18
1643464097448,18283.2706419,-16
1643464097448,18283.2706474,-21
1643464097471,18283.2706517,-40
1643464097471,18283.2706547,-68
1643464097471,18283.2706577,-70
1643464097471,18283.2706606,-61
1643464097471,18283.2706636,-63
1643464097471,18283.270669,-61
1643464097471,18283.2706721,-51
1643464097471,18283.2706763,-61
1643464097471,18283.2706794,-75
1643464097471,18283.2706833,-73
1643464097493,18283.2706882,-63
1643464097493,18283.2706911,-49
1643464097493,18283.2706939,-35
1643464097493,18283.2706969,-23
1643464097828,18283.2706999,-7
1643464097828,18283.2707029,4
1643464097828,18283.2707058,-11
1643464097828,18283.2707086,-25
1643464097828,18283.2707114,-11
1643464097828,18283.2707142,-4
1643464097828,18283.270717,-11
1643464097828,18283.2707198,-9
1643464097828,18283.2707226,-2
1643464097828,18283.2707254,-2
1643464097849,18283.2707282,-2
1643464097849,18283.270731,4
1643464097849,18283.2709109,2
1643464097849,18283.2709299,16
1643464097849,18283.2709369,176
1643464097849,18283.2709406,605
1643464097849,18283.2709454,1218
1643464097849,18283.2709486,1566
1643464097849,18283.2709533,1088
1643464097849,18283.2709565,190
1643464097872,18283.2709617,-94
1643464097872,18283.2709648,44
1643464097872,18283.2709697,-35
1643464097872,18283.2709729,-120
1643464097872,18283.2709777,-61
1643464097872,18283.2709809,-56
1643464097872,18283.2709856,-82
1643464097872,18283.2709887,-56
1643464097872,18283.2709935,-32
1643464097872,18283.2709967,-30
1643464097894,18283.2710014,-16
1643464097894,18283.2710045,2
1643464097894,18283.2710093,9
1643464097894,18283.2710124,21
1643464097894,18283.2710172,40
1643464097894,18283.2710203,61
1643464097894,18283.2710253,82
1643464097894,18283.2710284,103
1643464097894,18283.2710332,124
1643464097894,18283.2710364,143
1643464097916,18283.2710413,157
1643464097916,18283.2710444,167
1643464097916,18283.2710491,174
1643464097916,18283.2710523,174
1643464097916,18283.2710571,160
1643464097916,18283.2710603,129
1643464097916,18283.2710651,98
1643464097916,18283.2710682,56
1643464097916,18283.2710729,2
1643464097916,18283.271076,-40
1643464097937,18283.2710807,-65
1643464097937,18283.2710839,-89
1643464097937,18283.271089,-101
1643464097937,18283.2710922,-96
1643464097937,18283.271097,-94
1643464097937,18283.7709646,-96
1643464097937,18283.7709785,-91
1643464097937,18283.7709822,-87
1643464097937,18283.7709877,-87
1643464097937,18283.7709909,-82
1643464097960,18283.770996,-75
1643464097960,18283.7709992,-75
1643464097960,18283.7710039,-70
1643464097960,18283.7710088,-63
1643464097960,18283.7710121,-63
1643464097960,18283.7710171,-63
1643464097960,18283.7710203,-56
1643464097960,18283.7710258,-49
1643464097960,18283.771029,-47
1643464097960,18283.771034,-44
1643464097982,18283.7710372,-49
1643464097982,18283.7710422,-73
1643464097982,18283.7710454,-91
1643464097982,18283.7710485,-80
1643464098427,18283.7710538,-70
1643464098427,18283.771057,-82
1643464098427,18283.77106,-84
1643464098427,18283.7710629,-77
1643464098427,18283.7710658,-75
1643464098427,18283.7710688,-75
1643464098427,18283.7710727,-77
1643464098427,18283.7710757,-77
1643464098427,18283.7710786,-80
1643464098427,18283.7710815,-89
1643464098449,18283.7710845,-98
1643464098449,18283.7710874,-94
1643464098449,18283.7710904,-87
1643464098449,18283.7710933,-75
1643464098449,18283.7710963,-56
1643464098449,18283.7710992,-30
1643464098449,18283.7711021,-14
1643464098449,18283.7711051,-25
1643464098449,18283.771108,-44
1643464098449,18283.7711109,-40
1643464098472,18283.7711138,-25
1643464098472,18283.7711167,-25
1643464098472,18283.7711198,-25
1643464098472,18283.7711229,-28
1643464098472,18283.7711281,-25
1643464098472,18283.7711311,-16
1643464098472,18283.7711342,-14
1643464098472,18283.7711384,-21
1643464098472,18283.7711415,-28
1643464098472,18283.7711465,51
1643464098494,18283.7711495,372
1643464098494,18283.7711527,918
1643464098494,18283.7711577,1425
1643464098494,18283.7711628,1331
1643464098494,18283.7711678,511
1643464098494,18283.7711725,-96
1643464098494,18283.7711775,-40
1643464098494,18283.7711822,23
1643464098494,18283.7711871,-94
1643464098494,18283.7711919,-94
1643464098516,18283.7711967,-49
1643464098516,18283.7711997,-77
1643464098516,18283.7712028,-80
1643464098516,18283.7712077,-49
1643464098516,18283.7712107,-42
1643464098516,18283.7712138,-40
1643464098516,18283.771218,-18
1643464098516,18283.7712212,-4
1643464098516,18283.771226,9
1643464098516,18283.771229,30
1643464098538,18283.7712321,51
1643464098538,18283.7712372,70
1643464098538,18283.7712418,94
1643464098538,18283.7712468,117
1643464098538,18284.36625,134
1643464098538,18284.3662628,143
1643464098538,18284.3662661,146
1643464098538,18284.366269,153
1643464098538,18284.3662718,157
1643464098538,18284.3662746,148
1643464098562,18284.3662775,124
1643464098562,18284.3662805,87
1643464098562,18284.3662835,30
1643464098562,18284.3662868,-37
1643464098562,18284.3662911,-84
1643464098562,18284.366294,-115
1643464098562,18284.3662987,-131
1643464098562,18284.3663018,-136
1643464098562,18284.3663064,-139
1643464098562,18284.3663093,-139
1643464098582,18284.3663121,-127
1643464098582,18284.3663165,-117
1643464098582,18284.3663213,-117
1643464098582,18284.3663241,-113
1643464098982,18284.3663271,-108
1643464098982,18284.3663299,-103
1643464098982,18284.3663327,-98
1643464098982,18284.3663354,-89
1643464098982,18284.3663382,-80
1643464098982,18284.3663409,-73
1643464098982,18284.3663436,-65
1643464098982,18284.3663463,-58
1643464098982,18284.366349,-51
1643464098982,18284.3663517,-44
1643464099004,18284.3663545,-40
1643464099004,18284.3663572,-32
1643464099004,18284.36636,-28
1643464099004,18284.3663627,-28
1643464099004,18284.3663654,-30
1643464099004,18284.3663681,-23
1643464099004,18284.3663708,-16
1643464099004,18284.3663736,-11
1643464099004,18284.3663765,-14
1643464099004,18284.3663794,-16
1643464099027,18284.3663824,-23
1643464099027,18284.3663871,-28
1643464099027,18284.3663899,-30
1643464099027,18284.3663928,-32
1643464099027,18284.3663965,-23
1643464099027,18284.3663995,-7
1643464099027,18284.3664042,9
1643464099027,18284.3664088,30
1643464099027,18284.3664135,37
1643464099027,18284.366418,16
1643464099049,18284.3664219,-2
1643464099049,18284.3664249,0
1643464099049,18284.3664288,0
1643464099049,18284.3664317,-9
1643464099049,18284.3664355,-7
1643464099049,18284.3664385,-2
1643464099049,18284.3664435,-2
1643464099049,18284.366448,2
1643464099049,18284.366453,0
1643464099049,18284.366456,-23
1643464099071,18284.366459,-7
1643464099071,18284.3664638,202
1643464099071,18284.3664684,678
1643464099071,18284.3664732,1262
1643464099071,18284.366476,1470
1643464099071,18284.3664815,876
1643464099071,18284.3664865,63
1643464099071,18284.3664901,-106
1643464099071,18284.3664949,18
1643464099071,18284.3664996,-73
1643464099096,18284.3665043,-131
1643464099096,18284.3665086,-75
1643464099096,18284.3665134,-84
1643464099096,18284.9157329,-110
1643464099096,18284.9157439,-84
1643464099096,18284.9157472,-63
1643464099096,18284.9157501,-61
1643464099096,18284.915753,-47
1643464099096,18284.9157558,-32
1643464099096,18284.9157587,-35
1643464099115,18284.9157616,-37
1643464099115,18284.9157644,-21
1643464099115,18284.9157676,2
1643464099115,18284.9157712,21
1643464099115,18284.9157752,40
1643464099115,18284.9157797,56
1643464099115,18284.9157826,61
1643464099115,18284.915796,68
1643464099115,18284.9158016,87
1643464099115,18284.9158046,94
1643464099138,18284.9158076,91
1643464099138,18284.9158118,77
1643464099138,18284.915815,51
1643464099138,18284.9158198,16
1643464099537,18284.9158228,-28
1643464099537,18284.9158257,-70
1643464099537,18284.9158286,-98
1643464099537,18284.9158314,-117
1643464099537,18284.9158346,-129
1643464099537,18284.9158374,-134
1643464099537,18284.9158402,-127
1643464099537,18284.915843,-117
1643464099537,18284.9158458,-110
1643464099537,18284.9158486,-108
1643464099559,18284.9158515,-103
1643464099559,18284.9158543,-91
1643464099559,18284.9158571,-84
1643464099559,18284.9158599,-84
1643464099559,18284.9158627,-77
1643464099559,18284.9158655,-65
1643464099559,18284.9158683,-56
1643464099559,18284.9158711,-51
1643464099559,18284.9158751,-44
1643464099559,18284.9158781,-35
1643464099581,18284.9158824,-30
1643464099581,18284.9158855,-32
1643464099581,18284.9158894,-32
1643464099581,18284.9158924,-32
1643464099581,18284.9158964,-28
1643464099581,18284.9158994,-23
1643464099581,18284.9159042,-21
1643464099581,18284.9159071,-25
1643464099581,18284.9159102,-32
1643464099581,18284.9159152,-35
1643464099604,18284.9159196,-35
1643464099604,18284.9159236,-40
1643464099604,18284.9159267,-37
1643464099604,18284.9159314,-25
1643464099604,18284.9159342,-9
1643464099604,18284.9159373,9
1643464099604,18284.915942,28
1643464099604,18284.9159449,21
1643464099604,18284.9159479,-7
1643464099604,18284.9159509,-18
1643464099626,18284.9159549,-14
1643464099626,18284.9159578,-14
1643464099626,18284.9159625,-11
1643464099626,18284.9159655,-2
1643464099626,18284.9159702,-2
1643464099626,18284.9159752,-9
1643464099626,18284.9159798,-9
1643464099626,18284.9159833,-11
1643464099626,18284.9159864,-30
1643464099626,18284.9159913,28
1643464099648,18284.9159953,315
1643464099648,18284.9159984,855
1643464099648,18285.470584,1434
1643464099648,18285.470597,1415
1643464099648,18285.4706018,567
1643464099648,18285.4706073,-80
1643464099648,18285.4706103,-23
1643464099648,18285.4706135,4
1643464099648,18285.4706166,-146
1643464099648,18285.4706196,-127
1643464099672,18285.4706231,-70
1643464099672,18285.4706262,-108
1643464099672,18285.47063,-113
1643464099672,18285.4706331,-84
1643464099672,18285.4706361,-82
1643464099672,18285.4706401,-70
1643464099672,18285.4706432,-44
1643464099672,18285.470648,-28
1643464099672,18285.4706509,-16
1643464099672,18285.4706539,-4
1643464099694,18285.470659,11
1643464099694,18285.4706619,32
1643464099694,18285.4706651,51
1643464099694,18285.4706699,73
1643464100182,18285.4706742,91
1643464100182,18285.4706772,106
1643464100182,18285.47068,110
1643464100182,18285.4706829,115
1643464100182,18285.4706856,115
1643464100182,18285.4706884,108
1643464100182,18285.4706912,91
1643464100182,18285.470694,54
1643464100182,18285.4706968,4
1643464100182,18285.4706996,-32
1643464100204,18285.4707024,-65
1643464100204,18285.4707052,-96
1643464100204,18285.470708,-122
1643464100204,18285.4707108,-131
1643464100204,18285.4707137,-124
1643464100204,18285.4707165,-120
1643464100204,18285.4707193,-115
1643464100204,18285.4707223,-108
1643464100204,18285.4707273,-101
1643464100204,18285.4707302,-94
1643464100227,18285.4707332,-91
1643464100227,18285.4707361,-89
1643464100227,18285.4707392,-82
1643464100227,18285.4707445,-73
1643464100227,18285.4707485,-65
1643464100227,18285.4707515,-56
1643464100227,18285.4707563,-47
1643464100227,18285.4707592,-42
1643464100227,18285.4707622,-42
1643464100227,18285.4707673,-42
1643464100249,18285.4707704,-35
1643464100249,18285.4707752,-37
1643464100249,18285.4707781,-44
1643464100249,18285.4707811,-42
1643464100249,18285.4707851,-32
1643464100249,18285.4707881,-32
1643464100249,18285.470793,-35
1643464100249,18285.470796,-32
1643464100249,18285.4707991,-32
1643464100249,18285.470803,-35
1643464100272,18285.470806,-37
1643464100272,18285.4708102,-49
1643464100272,18285.4708132,-54
1643464100272,18285.4708171,-44
1643464100272,18285.4708201,-35
1643464100272,18285.4708253,-23
1643464100272,18285.4708298,-2
1643464100272,18285.4708346,18
1643464100272,18285.4708389,11
1643464100272,18285.4708437,-16
1643464100295,18285.4708468,-21
1643464100295,18286.1174637,-4
1643464100295,18286.1174763,0
1643464100295,18286.1174811,-2
1643464100295,18286.1174861,0
1643464100295,18286.1174905,0
1643464100295,18286.117495,-2
1643464100295,18286.117498,-2
1643464100295,18286.1175029,-14
1643464100295,18286.117506,-23
1643464100316,18286.1175109,75
1643464100316,18286.1175139,409
1643464100316,18286.1175169,977
1643464100316,18286.1175198,1493
1643464100316,18286.1175229,1288
1643464100316,18286.1175258,381
1643464100316,18286.1175291,-115
1643464100316,18286.1175342,-2
1643464100316,18286.1175373,-23
1643464100316,18286.1175403,-143
1643464100338,18286.1175432,-101
1643464100338,18286.1175462,-70
1643464100338,18286.1175492,-98
1643464100338,18286.1175522,-84
1643464100872,18286.1175553,-63
1643464100872,18286.1175582,-63
1643464100872,18286.117561,-54
1643464100872,18286.1175638,-32
1643464100872,18286.1175666,-23
1643464100872,18286.1175693,-7
1643464100872,18286.1175721,14
1643464100872,18286.1175749,30
1643464100872,18286.1175778,49
1643464100872,18286.1175806,73
1643464100895,18286.1175834,87
1643464100895,18286.1175868,101
1643464100895,18286.1175896,117
1643464100895,18286.1175924,117
1643464100895,18286.1175951,115
1643464100895,18286.117598,117
1643464100895,18286.1176008,103
1643464100895,18286.1176036,82
1643464100895,18286.1176071,63
1643464100895,18286.11761,32
1643464100915,18286.1176131,-16
1643464100915,18286.1176164,-54
1643464100915,18286.1176199,-73
1643464100915,18286.1176228,-94
1643464100915,18286.1176256,-110
1643464100915,18286.1176292,-106
1643464100915,18286.117632,-96
1643464100915,18286.1176349,-101
1643464100915,18286.1176377,-106
1643464100915,18286.1176406,-98
1643464100939,18286.1176434,-87
1643464100939,18286.1176462,-84
1643464100939,18286.117649,-87
1643464100939,18286.1176518,-94
1643464100939,18286.1176547,-98
1643464100939,18286.1176575,-91
1643464100939,18286.1176604,-73
1643464100939,18286.1176632,-63
1643464100939,18286.1176661,-70
1643464100939,18286.1176689,-73
1643464100959,18286.1176726,-63
1643464100959,18286.1176754,-68
1643464100959,18286.1176782,-70
1643464100959,18286.117681,-51
1643464100959,18286.1176838,-44
1643464100959,18286.1176867,-51
1643464100959,18286.1176895,-51
1643464100959,18286.1176923,-47
1643464100959,18286.1176951,-49
1643464100959,18286.117698,-56
1643464100982,18286.8172175,-61
1643464100982,18286.8172339,-63
1643464100982,18286.8172393,-68
1643464100982,18286.8172426,-75
1643464100982,18286.8172468,-73
1643464100982,18286.8172497,-49
1643464100982,18286.8172527,-28
1643464100982,18286.8172656,-21
1643464100982,18286.8172703,-16
1643464100982,18286.8172733,-18
1643464101005,18286.8172765,-32
1643464101005,18286.8172796,-40
1643464101005,18286.8172827,-30
1643464101005,18286.8172857,-25
1643464101005,18286.8172887,-25
1643464101005,18286.8172917,-25
1643464101005,18286.8172969,-23
1643464101005,18286.8172999,-18
1643464101005,18286.8173047,-14
1643464101005,18286.8173078,-25
1643464101027,18286.8173108,-56
1643464101027,18286.8173138,-32
1643464101027,18286.8173168,202
1643464101027,18286.8173218,669
1643464101229,18286.817325,1159
1643464101229,18286.817328,1239
1643464101229,18286.8173309,645
1643464101229,18286.8173338,-7
1643464101229,18286.8173367,-77
1643464101229,18286.8173396,25
1643464101229,18286.8173427,-65
1643464101229,18286.8173456,-108
1643464101229,18286.8173485,-58
1643464101229,18286.8173514,-68
1643464101249,18286.8173543,-89
1643464101249,18286.8173573,-63
1643464101249,18286.8173602,-40
1643464101249,18286.817363,-32
1643464101249,18286.8173659,-23
1643464101249,18286.8173686,-16
1643464101249,18286.8173714,-4
1643464101249,18286.8173745,16
1643464101249,18286.8173774,28
1643464101249,18286.8173803,49
1643464101272,18286.8173831,77
1643464101272,18286.8173861,94
1643464101272,18286.8173889,110
1643464101272,18286.8173918,129
1643464101272,18286.8173947,134
1643464101272,18286.8173975,134
1643464101272,18286.8174004,136
1643464101272,18286.8174033,127
1643464101272,18286.8174065,108
1643464101272,18286.8174094,89
1643464101293,18286.8174123,54
1643464101293,18286.8174153,4
1643464101293,18286.8174184,-40
1643464101293,18286.8174237,-63
1643464101293,18286.8174268,-75
1643464101293,18286.8174317,-91
1643464101293,18286.8174347,-117
1643464101293,18286.8174388,-120
1643464101293,18286.8174419,-110
1643464101293,18286.817446,-106
1643464101315,18286.8174693,-101
1643464101315,18286.8174767,-94
1643464101315,18286.81748,-89
1643464101315,18286.8174833,-82
1643464101315,18286.8174863,-75
1643464101315,18286.8174993,-70
1643464101315,18286.8175053,-56
1643464101315,18286.8175096,-47
1643464101315,18286.8181271,-47
1643464101315,18287.1704786,-37
1643464101338,18287.1704903,-28
1643464101338,18287.1704937,-32
1643464101338,18287.1704966,-30
1643464101338,18287.1704995,-21
1643464101338,18287.1705023,-25
1643464101338,18287.1705052,-40
1643464101338,18287.1705081,-40
1643464101338,18287.170511,-35
1643464101338,18287.1705148,-30
1643464101338,18287.1705207,-25
1643464101360,18287.1705237,-21
1643464101360,18287.1705268,-25
1643464101360,18287.1705299,-35
1643464101360,18287.1705346,-40
1643464101360,18287.1705382,-35
1643464101360,18287.1705413,-44
1643464101360,18287.1705443,-61
1643464101360,18287.1705496,-56
1643464101360,18287.1705527,-30
1643464101360,18287.1705557,-23
1643464101383,18287.1705588,-23
1643464101383,18287.1705619,-2
1643464101383,18287.1705655,16
1643464101383,18287.1705708,0
1643464101783,18287.1705739,-23
1643464101783,18287.1705768,-30
1643464101783,18287.1705796,-32
1643464101783,18287.1705823,-40
1643464101783,18287.170585,-40
1643464101783,18287.1705878,-32
1643464101783,18287.1705907,-28
1643464101783,18287.1705935,-37
1643464101783,18287.1705963,-47
1643464101783,18287.170599,-63
1643464101805,18287.1706018,-18
1643464101805,18287.1706046,230
1643464101805,18287.1706074,690
1643464101805,18287.1706102,1147
1643464101805,18287.1706131,1185
1643464101805,18287.1706159,598
1643464101805,18287.1706187,-35
1643464101805,18287.1706214,-117
1643464101805,18287.1706242,9
1643464101805,18287.170627,-44
1643464101827,18287.1706298,-94
1643464101827,18287.1706325,-61
1643464101827,18287.1706353,-61
1643464101827,18287.1706381,-75
1643464101827,18287.1706408,-56
1643464101827,18287.1706436,-40
1643464101827,18287.1706464,-28
1643464101827,18287.1706491,-14
1643464101827,18287.170652,0
1643464101827,18287.1706548,11
1643464101848,18287.1706576,30
1643464101848,18287.1706609,56
1643464101848,18287.1706637,75
1643464101848,18287.1706666,101
1643464101848,18287.1706693,134
1643464101848,18287.1706722,153
1643464101848,18287.170675,160
1643464101848,18287.1706778,176
1643464101848,18287.1706805,193
1643464101848,18287.1706833,188
1643464101871,18287.1706861,171
1643464101871,18287.1706889,155
1643464101871,18287.1706918,122
1643464101871,18287.1706956,70
1643464101871,18287.1706984,16
1643464101871,18287.1707013,-35
1643464101871,18287.1707041,-77
1643464101871,18287.170707,-98
1643464101871,18287.72031,-108
1643464101871,18287.7203223,-117
1643464101893,18287.7203277,-117
1643464101893,18287.7203328,-110
1643464101893,18287.7203374,-115
1643464101893,18287.7203422,-117
1643464101893,18287.7203464,-106
1643464101893,18287.7203512,-103
1643464101893,18287.7203551,-103
1643464101893,18287.72036,-94
1643464101893,18287.7203629,-84
1643464101893,18287.7203661,-91
1643464101916,18287.7203709,-110
1643464101916,18287.7203755,-117
1643464101916,18287.7203803,-101
1643464101916,18287.7203847,-89
1643464101916,18287.7203888,-87
1643464101916,18287.7203922,-80
1643464101916,18287.7203973,-70
1643464101916,18287.7204004,-75
1643464101916,18287.7204052,-75
1643464101916,18287.7204083,-68
1643464101939,18287.7204114,-68
1643464101939,18287.7204162,-73
1643464101939,18287.7204191,-75
1643464101939,18287.7204223,-73
1643464102382,18287.7204271,-68
1643464102382,18287.7204309,-68
1643464102382,18287.7204337,-65
1643464102382,18287.7204365,-65
1643464102382,18287.7204394,-80
1643464102382,18287.7204422,-91
1643464102382,18287.720445,-91
1643464102382,18287.7204478,-89
1643464102382,18287.7204507,-84
1643464102382,18287.7204535,-80
1643464102405,18287.7204563,-65
1643464102405,18287.7204592,-44
1643464102405,18287.720462,-28
1643464102405,18287.7204648,-16
1643464102405,18287.7204677,-18
1643464102405,18287.7204705,-30
1643464102405,18287.720476,-32
1643464102405,18287.720479,-28
1643464102405,18287.7204821,-30
1643464102405,18287.7204852,-23
1643464102437,18287.7204882,-16
1643464102437,18287.7204912,-11
1643464102437,18287.7204954,-11
1643464102437,18287.7204986,-18
1643464102437,18287.7205033,-30
1643464102437,18287.7205062,-14
1643464102437,18287.7205094,162
1643464102437,18287.7205143,598
1643464102437,18287.720518,1163
1643464102437,18287.7205211,1422
1643464102454,18287.7205239,947
1643464102454,18287.7205268,124
1643464102454,18287.7205297,-153
1643464102454,18287.7205325,11
1643464102454,18287.7205356,0
1643464102454,18287.7205397,-106
1643464102454,18287.7205428,-80
1643464102454,18287.7205468,-58
1643464102454,18287.7205498,-77
1643464102454,18287.7205537,-54
1643464102474,18287.7205568,-23
1643464102474,18287.7205617,-23
1643464102474,18287.7205645,-16
1643464102474,18287.7205675,2
1643464102474,18287.7205723,14
1643464102474,18287.7205772,32
1643464102474,18287.7205819,65
1643464102474,18288.3196218,91
1643464102474,18288.3196334,103
1643464102474,18288.3196381,120
1643464102493,18288.3196412,146
1643464102493,18288.3196444,167
1643464102493,18288.3196474,188
1643464102493,18288.3196504,202
1643464102493,18288.3196534,207
1643464102493,18288.3196565,200
1643464102493,18288.3196721,181
1643464102493,18288.3196754,129
1643464102493,18288.3196803,58
1643464102493,18288.3196833,2
1643464102515,18288.3196863,-32
1643464102515,18288.3196892,-73
1643464102515,18288.3196921,-115
1643464102515,18288.3196949,-139
1643464102515,18288.319698,-148
1643464102515,18288.3197023,-143
1643464102515,18288.3197054,-129
1643464102515,18288.3197084,-124
1643464102515,18288.3197114,-120
1643464102515,18288.3197175,-110
1643464102538,18288.3197207,-110
1643464102538,18288.3197258,-113
1643464102538,18288.3197289,-113
1643464102538,18288.3197331,-103
1643464102872,18288.3197362,-94
1643464102872,18288.3197391,-82
1643464102872,18288.3197419,-68
1643464102872,18288.3197448,-61
1643464102872,18288.3197477,-56
1643464102872,18288.3197505,-49
1643464102872,18288.3197534,-49
1643464102872,18288.3197562,-44
1643464102872,18288.319759,-35
1643464102872,18288.3197618,-37
1643464102893,18288.3197646,-47
1643464102893,18288.3197674,-61
1643464102893,18288.3197702,-63
1643464102893,18288.319773,-42
1643464102893,18288.3197759,-23
1643464102893,18288.3197787,-16
1643464102893,18288.3197829,-28
1643464102893,18288.3197859,-51
1643464102893,18288.3197901,-61
1643464102893,18288.3197932,-49
1643464102915,18288.3197972,-35
1643464102915,18288.3198021,-40
1643464102915,18288.3198061,-49
1643464102915,18288.3198101,-49
1643464102915,18288.3198132,-44
1643464102915,18288.3198173,-37
1643464102915,18288.3198204,-35
1643464102915,18288.3198256,-28
1643464102915,18288.3198287,-9
1643464102915,18288.319832,0
1643464102937,18288.3198368,-11
1643464102937,18288.3198399,-28
1643464102937,18288.3198429,-11
1643464102937,18288.3198481,4
1643464102937,18288.3198518,-9
1643464102937,18288.3198548,-14
1643464102937,18288.3198601,-2
1643464102937,18288.3198746,2
1643464102937,18288.3199048,-7
1643464102937,18288.3199285,-23
1643464102961,18288.3199358,-44
1643464102961,18288.3199394,-23
1643464102961,18288.3199442,190
1643464102961,18288.319949,685
1643464102961,18288.3199615,1305
1643464102961,18288.3199665,1552
1643464102961,18288.8201815,989
1643464102961,18288.8201941,131
1643464102961,18288.8201995,-110
1643464102961,18288.8202052,14
1643464102981,18288.8202083,-49
1643464102981,18288.8202132,-108
1643464102981,18288.8202172,-63
1643464102981,18288.8202223,-77
1643464102981,18288.8202253,-103
1643464102981,18288.8202284,-75
1643464102981,18288.8202324,-58
1643464102981,18288.8202355,-65
1643464102981,18288.8202402,-58
1643464102981,18288.8202446,-32
1643464103004,18288.8202503,2
1643464103004,18288.8202546,25
1643464103004,18288.8202594,2
1643464103004,18288.8202638,-11
1643464103004,18288.8202678,28
1643464103004,18288.8202708,73
1643464103004,18288.8202755,77
1643464103004,18288.8202786,82
1643464103004,18288.8202826,110
1643464103004,18288.8202857,146
1643464103027,18288.8202899,183
1643464103027,18288.8202929,183
1643464103027,18288.8202979,129
1643464103027,18288.8203023,80
1643464103470,18288.8203062,56
1643464103470,18288.8203092,7
1643464103470,18288.8203121,-77
1643464103470,18288.8203149,-150
1643464103470,18288.8203178,-148
1643464103470,18288.8203206,-96
1643464103470,18288.8203234,-84
1643464103470,18288.8203263,-110
1643464103470,18288.8203291,-127
1643464103470,18288.8203319,-122
1643464103493,18288.8203347,-108
1643464103493,18288.8203375,-106
1643464103493,18288.8203403,-110
1643464103493,18288.8203431,-101
1643464103493,18288.8203459,-73
1643464103493,18288.8203487,-77
1643464103493,18288.8203516,-106
1643464103493,18288.8203561,-89
1643464103493,18288.8203596,-68
1643464103493,18288.820364,-80
1643464103515,18288.820367,-68
1643464103515,18288.8203716,-37
1643464103515,18288.8203746,-44
1643464103515,18288.8203804,-77
1643464103515,18288.8203836,-87
1643464103515,18288.820387,-63
1643464103515,18288.82039,-51
1643464103515,18288.820393,-63
1643464103515,18288.820396,-58
1643464103515,18288.8204002,-32
1643464103537,18288.8204033,-25
1643464103537,18288.820408,-32
1643464103537,18288.8204109,-44
1643464103537,18288.8204139,-44
1643464103537,18288.8204188,-18
1643464103537,18288.8204216,-9
1643464103537,18288.8204247,-40
1643464103537,18288.8204287,-58
1643464103537,18288.8204317,-47
1643464103537,18288.820437,-42
1643464103561,18288.8204399,-37
1643464103561,18288.8204429,4
1643464103561,18288.8204477,35
1643464103561,18288.8204524,-2
1643464103561,18288.8204572,-30
1643464103561,18289.4165996,-23
1643464103561,18289.4166123,-56
1643464103561,18289.4166164,-91
1643464103561,18289.4166214,-56
1643464103561,18289.4166261,-11
1643464103582,18289.416631,-2
1643464103582,18289.4166338,-14
1643464103582,18289.4166368,-42
1643464103582,18289.4166398,-35
1643464103582,18289.4166438,16
1643464103582,18289.4166487,18
1643464103582,18289.4166517,-40
1643464103582,18289.4166559,-56
1643464103582,18289.4166607,-14
1643464103582,18289.4166636,-9
1643464103604,18289.4166667,-37
1643464103604,18289.4166706,-23
1643464103604,18289.416676,0
1643464103604,18289.416679,-21
1643464103604,18289.4166829,-23
1643464103604,18289.4166869,7
1643464103604,18289.4166918,0
1643464103604,18289.4166958,-2
1643464103604,18289.4167006,143
1643464103604,18289.4167035,586
1643464103627,18289.4167065,1246
1643464103627,18289.4167094,1531
1643464103627,18289.4167123,947
1643464103627,18289.4167153,108
1643464104026,18289.4167194,-75
1643464104026,18289.4167248,42
1643464104026,18289.4167278,-84
1643464104026,18289.4167307,-134
1643464104026,18289.4167336,-21
1643464104026,18289.4167365,-23
1643464104026,18289.4167393,-103
1643464104026,18289.4167421,-108
1643464104026,18289.416745,-61
1643464104026,18289.4167478,-37
1643464104048,18289.4167506,-44
1643464104048,18289.4167534,-30
1643464104048,18289.4167563,0
1643464104048,18289.4167592,14
1643464104048,18289.4167621,14
1643464104048,18289.4167653,35
1643464104048,18289.4167682,75
1643464104048,18289.416771,106
1643464104048,18289.4167739,134
1643464104048,18289.4167766,169
1643464104070,18289.4167794,183
1643464104070,18289.4167822,181
1643464104070,18289.4167852,171
1643464104070,18289.4167881,164
1643464104070,18289.4167909,174
1643464104070,18289.4167938,174
1643464104070,18289.4167966,136
1643464104070,18289.4167995,58
1643464104070,18289.4168023,-30
1643464104070,18289.4168053,-87
1643464104092,18289.4168082,-87
1643464104092,18289.4168111,-70
1643464104092,18289.4168139,-103
1643464104092,18289.4168167,-141
1643464104092,18289.4168195,-124
1643464104092,18289.4168224,-103
1643464104092,18289.4168253,-108
1643464104092,18289.4168281,-117
1643464104092,18289.4168311,-115
1643464104092,18289.4168345,-94
1643464104115,18289.4168374,-89
1643464104115,18289.4168402,-115
1643464104115,18289.416843,-96
1643464104115,18289.4168458,-42
1643464104115,18289.9706001,-40
1643464104115,18289.9706139,-51
1643464104115,18289.9706176,-54
1643464104115,18289.9706209,-82
1643464104115,18289.9706264,-61
1643464104115,18289.9706305,-14
1643464104136,18289.9706353,-58
1643464104136,18289.9706382,-94
1643464104136,18289.9706413,-47
1643464104136,18289.9706463,-21
1643464104136,18289.9706509,-47
1643464104136,18289.9706557,-51
1643464104136,18289.9706602,-37
1643464104136,18289.9706652,-61
1643464104136,18289.9706682,-89
1643464104136,18289.9706712,-56
1643464104160,18289.9706753,0
1643464104160,18289.9706783,-7
1643464104160,18289.9706831,-70
1643464104160,18289.9706878,-87
1643464104160,18289.9706915,-42
1643464104160,18289.9706946,-23
1643464104160,18289.9706994,-63
1643464104160,18289.9707041,-63
1643464104160,18289.970708,-4
1643464104160,18289.9707111,14
1643464104183,18289.9707158,-16
1643464104183,18289.9707207,-30
1643464104183,18289.9707255,-14
1643464104183,18289.9707299,-4
1643464104581,18289.970734,-23
1643464104581,18289.970737,-21
1643464104581,18289.9707399,-2
1643464104581,18289.9707427,-21
1643464104581,18289.9707456,-23
1643464104581,18289.9707484,14
1643464104581,18289.9707513,11
1643464104581,18289.9707541,-18
1643464104581,18289.9707569,7
1643464104581,18289.9707597,51
1643464104603,18289.9707626,18
1643464104603,18289.9707654,-44
1643464104603,18289.9707682,-18
1643464104603,18289.9707711,44
1643464104603,18289.9707739,32
1643464104603,18289.9707768,-7
1643464104603,18289.9707797,-9
1643464104603,18289.9707826,18
1643464104603,18289.9707855,54
1643464104603,18289.9707883,51
1643464104626,18289.9707913,40
1643464104626,18289.9707952,54
1643464104626,18289.9707983,68
1643464104626,18289.9708012,51
1643464104626,18289.9708042,28
1643464104626,18289.9708072,42
1643464104626,18289.9708102,54
1643464104626,18289.9708144,28
1643464104626,18289.9708174,21
1643464104626,18289.9708204,23
1643464104649,18289.9708234,2
1643464104649,18289.9708288,-4
1643464104649,18289.970832,11
1643464104649,18289.9708351,-7
1643464104649,18289.97084,-14
1643464104649,18289.9708447,160
1643464104649,18289.970849,591
1643464104649,18289.970852,1187
1643464104649,18289.970855,1531
1643464104649,18289.9708598,1076
1643464104671,18289.9708646,188
1643464104671,18289.9708695,-146
1643464104671,18289.9708727,9
1643464104671,18290.520536,-7
1643464104671,18290.5205495,-115
1643464104671,18290.5205547,-91
1643464104671,18290.520559,-96
1643464104671,18290.5205621,-139
1643464104671,18290.520566,-96
1643464104671,18290.5205692,-44
1643464104693,18290.5205731,-54
1643464104693,18290.5205762,-44
1643464104693,18290.5205802,-2
1643464104693,18290.5205861,-18
1643464104693,18290.5205891,-89
1643464104693,18290.5205922,-89
1643464104693,18290.5205954,2
1643464104693,18290.5205989,58
1643464104693,18290.5206038,58
1643464104693,18290.5206067,70
1643464104714,18290.5206099,108
1643464104714,18290.5206138,146
1643464104714,18290.5206169,160
1643464104714,18290.5206211,143
1643464104714,18290.5206243,136
1643464104714,18290.5206293,146
1643464104714,18290.5206323,134
1643464104714,18290.5206372,89
1643464104714,18290.5206404,61
1643464104714,18290.5206445,35
1643464104736,18290.5206477,-32
1643464104736,18290.5206526,-91
1643464104736,18290.5206556,-117
1643464104736,18290.5206587,-139
1643464105137,18290.5206638,-127
1643464105137,18290.5206668,-98
1643464105137,18290.5206697,-115
1643464105137,18290.5206726,-122
1643464105137,18290.5206754,-82
1643464105137,18290.5206783,-75
1643464105137,18290.5206811,-96
1643464105137,18290.5206844,-80
1643464105137,18290.5206873,-49
1643464105137,18290.5206901,-63
1643464105160,18290.5206929,-84
1643464105160,18290.5206958,-65
1643464105160,18290.5206986,-40
1643464105160,18290.5207015,-37
1643464105160,18290.5207044,-40
1643464105160,18290.5207072,-47
1643464105160,18290.5207101,-44
1643464105160,18290.5207129,-7
1643464105160,18290.5207158,9
1643464105160,18290.5207186,-30
1643464105181,18290.5207215,-68
1643464105181,18290.5207243,-61
1643464105181,18290.5207272,-32
1643464105181,18290.5207304,-35
1643464105181,18290.5207334,-49
1643464105181,18290.5207365,-25
1643464105181,18290.5207405,-28
1643464105181,18290.5207436,-61
1643464105181,18290.5207483,-42
1643464105181,18290.5207514,-9
1643464105203,18290.5207568,-9
1643464105203,18290.5207599,-16
1643464105203,18290.5207655,-35
1643464105203,18290.5207685,-47
1643464105203,18290.5207734,-42
1643464105203,18290.5207765,-23
1643464105203,18290.5207796,-23
1643464105203,18290.5207826,-32
1643464105203,18290.5207865,-9
1643464105203,18290.5207914,-2
1643464105226,18290.520796,-25
1643464105226,18290.5207989,-40
1643464105226,18291.0706661,-42
1643464105226,18291.0706774,-25
1643464105226,18291.070681,-18
1643464105226,18291.0706841,-18
1643464105226,18291.0706872,9
1643464105226,18291.0706902,16
1643464105226,18291.0706938,-25
1643464105226,18291.0706968,-40
1643464105248,18291.0706997,-32
1643464105248,18291.0707027,-56
1643464105248,18291.0707056,-75
1643464105248,18291.0707166,-63
1643464105248,18291.0707259,-61
1643464105248,18291.0707342,-77
1643464105248,18291.0707434,-68
1643464105248,18291.0707517,-56
1643464105248,18291.0707564,-80
1643464105248,18291.0707653,-96
1643464105270,18291.0707733,-75
1643464105270,18291.0707768,-32
1643464105270,18291.0707799,-16
1643464105270,18291.0707829,-28
1643464105270,18291.0707859,-14
1643464105270,18291.0707888,21
1643464105270,18291.0707917,-7
1643464105270,18291.0707946,-54
1643464105270,18291.0707975,-40
1643464105270,18291.0708004,-4
1643464105293,18291.0708033,-4
1643464105293,18291.0708062,-18
1643464105293,18291.0708091,-9
1643464105293,18291.070812,9
1643464105737,18291.0708148,2
1643464105737,18291.0708178,-16
1643464105737,18291.0708206,-25
1643464105737,18291.0708236,-2
1643464105737,18291.0708266,160
1643464105737,18291.0708295,629
1643464105737,18291.0708365,1333
1643464105737,18291.070841,1705
1643464105737,18291.0708441,1154
1643464105737,18291.0708486,181
1643464105760,18291.0708515,-127
1643464105760,18291.0708544,32
1643464105760,18291.0708577,-47
1643464105760,18291.0708611,-190
1643464105760,18291.0708648,-155
1643464105760,18291.0708677,-120
1643464105760,18291.0708713,-131
1643464105760,18291.0708746,-113
1643464105760,18291.0708775,-82
1643464105760,18291.0708804,-70
1643464105782,18291.0708834,-61
1643464105782,18291.0708864,-32
1643464105782,18291.0708893,-4
1643464105782,18291.0708922,2
1643464105782,18291.0708952,21
1643464105782,18291.0708981,47
1643464105782,18291.0709013,44
1643464105782,18291.0709042,80
1643464105782,18291.0709072,164
1643464105782,18291.0709108,197
1643464105804,18291.0709138,179
1643464105804,18291.0709167,200
1643464105804,18291.0709197,226
1643464105804,18291.0709229,214
1643464105804,18291.0709269,214
1643464105804,18291.0709301,212
1643464105804,18291.0709331,164
1643464105804,18291.070936,94
1643464105804,18291.070939,25
1643464105804,18291.0709419,-28
1643464105828,18291.0709449,-73
1643464105828,18291.6689068,-103
1643464105828,18291.6689215,-115
1643464105828,18291.6689269,-139
1643464105828,18291.6689321,-141
1643464105828,18291.6689353,-101
1643464105828,18291.6689399,-106
1643464105828,18291.668943,-127
1643464105828,18291.6689477,-82
1643464105828,18291.6689506,-63
1643464105849,18291.6689554,-124
1643464105849,18291.6689584,-136
1643464105849,18291.6689623,-110
1643464105849,18291.6689653,-106
1643464105849,18291.6689702,-84
1643464105849,18291.6689732,-70
1643464105849,18291.6689771,-73
1643464105849,18291.6689848,-65
1643464105849,18291.6689897,-49
1643464105849,18291.6689926,-30
1643464105871,18291.6689955,-32
1643464105871,18291.6689997,-44
1643464105871,18291.6690028,-47
1643464105871,18291.6690059,-44
1643464105871,18291.6690107,-37
1643464105871,18291.6690137,-30
1643464105871,18291.6690185,-32
1643464105871,18291.6690216,-30
1643464105871,18291.6690548,-28
1643464105871,18291.6690634,-44
1643464105894,18291.6690693,-51
1643464105894,18291.6690724,-37
1643464105894,18291.6690772,-23
1643464105894,18291.6690802,-16
1643464106238,18291.669085,-23
1643464106238,18291.6690879,-44
1643464106238,18291.6690908,-56
1643464106238,18291.6690935,-47
1643464106238,18291.6690963,-32
1643464106238,18291.669099,-16
1643464106238,18291.6691018,-7
1643464106238,18291.6691046,-21
1643464106238,18291.6691074,-54
1643464106238,18291.6691101,-80
1643464106257,18291.669113,-58
1643464106257,18291.6691158,-30
1643464106257,18291.6691186,-28
1643464106257,18291.6691214,-16
1643464106257,18291.6691244,2
1643464106257,18291.6691272,18
1643464106257,18291.6691299,21
1643464106257,18291.6691327,-7
1643464106257,18291.6691355,-28
1643464106257,18291.6691383,7
1643464106275,18291.6691411,44
1643464106275,18291.6691439,16
1643464106275,18291.6691466,-16
1643464106275,18291.6691494,11
1643464106275,18291.6691521,32
1643464106275,18291.669155,11
1643464106275,18291.6691577,4
1643464106275,18291.6691605,11
1643464106275,18291.6691632,4
1643464106275,18291.6691661,0
1643464106294,18291.6691689,101
1643464106294,18291.6691717,520
1643464106294,18291.6691745,1246
1643464106294,18291.6691774,1799
1643464106294,18291.6691801,1500
1643464106294,18291.6691833,459
1643464106294,18291.6691863,-124
1643464106294,18291.6691891,-21
1643464106294,18291.6691919,-35
1643464106294,18291.6691947,-148
1643464106315,18292.1719382,-101
1643464106315,18292.1719506,-84
1643464106315,18292.1719547,-110
1643464106315,18292.1719599,-73
1643464106315,18292.1719628,-30
1643464106315,18292.1719659,-47
1643464106315,18292.1719707,-70
1643464106315,18292.1719753,-63
1643464106315,18292.1719802,-44
1643464106315,18292.1719832,-9
1643464106337,18292.1719872,18
1643464106337,18292.1719919,30
1643464106337,18292.1719966,63
1643464106337,18292.1720014,84
1643464106337,18292.172006,73
1643464106337,18292.1720099,108
1643464106337,18292.1720129,179
1643464106337,18292.1720168,209
1643464106337,18292.1720197,219
1643464106337,18292.1720226,216
1643464106360,18292.1720275,188
1643464106360,18292.1720304,171
1643464106360,18292.1720338,139
1643464106360,18292.1720367,54
1643464106360,18292.1720397,-32
1643464106360,18292.1720427,-89
1643464106360,18292.1720468,-129
1643464106360,18292.1720498,-148
1643464106360,18292.1720538,-139
1643464106360,18292.1720568,-139
1643464106382,18292.1720608,-169
1643464106382,18292.1720637,-188
1643464106382,18292.1720668,-160
1643464106382,18292.1720717,-124
1643464106882,18292.1720746,-124
1643464106882,18292.1720776,-141
1643464106882,18292.1720803,-131
1643464106882,18292.1720832,-113
1643464106882,18292.1720859,-110
1643464106882,18292.1720887,-103
1643464106882,18292.1720916,-91
1643464106882,18292.1720943,-89
1643464106882,18292.1720972,-108
1643464106882,18292.1720999,-103
1643464106904,18292.1721027,-61
1643464106904,18292.1721056,-44
1643464106904,18292.1721084,-65
1643464106904,18292.1721111,-94
1643464106904,18292.1721139,-87
1643464106904,18292.1721167,-54
1643464106904,18292.1721196,-61
1643464106904,18292.1721226,-73
1643464106904,18292.1721255,-56
1643464106904,18292.1721285,-70
1643464106928,18292.1721314,-91
1643464106928,18292.1721343,-70
1643464106928,18292.1721373,-40
1643464106928,18292.1721413,-42
1643464106928,18292.1721443,-70
1643464106928,18292.1721472,-73
1643464106928,18292.1721501,-40
1643464106928,18292.1721531,-32
1643464106928,18292.172156,-61
1643464106928,18292.1721599,-63
1643464106949,18292.1721629,-30
1643464106949,18292.1721668,-42
1643464106949,18292.1721698,-75
1643464106949,18292.1721748,-42
1643464106949,18292.1721777,-2
1643464106949,18292.1721806,-21
1643464106949,18292.1721846,-40
1643464106949,18292.1721875,-25
1643464106949,18292.1721906,-25
1643464106949,18292.8167115,-56
1643464106970,18292.8167245,-75
1643464106970,18292.8167308,-37
1643464106970,18292.816736,11
1643464106970,18292.8167615,7
1643464106970,18292.816768,-21
1643464106970,18292.8167717,-42
1643464106970,18292.8167767,-70
1643464106970,18292.8167796,-65
1643464106970,18292.8167824,-16
1643464106970,18292.8167854,0
1643464106993,18292.8167883,-21
1643464106993,18292.8167911,-16
1643464106993,18292.8167939,0
1643464106993,18292.8167969,-16
1643464106993,18292.8167999,-37
1643464106993,18292.8168046,-9
1643464106993,18292.8168077,16
1643464106993,18292.8168115,-2
1643464106993,18292.8168145,-23
1643464106993,18292.8168174,-37
1643464107015,18292.8168202,-56
1643464107015,18292.8168232,-21
1643464107015,18292.816827,32
1643464107015,18292.8168301,4
1643464107015,18292.8168449,21
1643464107015,18292.8168495,351
1643464107015,18292.8168524,982
1643464107015,18292.8168553,1599
1643464107015,18292.816858,1613
1643464107015,18292.8168608,723
1643464107038,18292.8168637,-84
1643464107038,18292.8168665,-68
1643464107038,18292.8168694,42
1643464107038,18292.8168722,-103
1643464107370,18292.816875,-134
1643464107370,18292.8168778,-96
1643464107370,18292.8168807,-117
1643464107370,18292.8168849,-115
1643464107370,18292.8168879,-89
1643464107370,18292.8168908,-68
1643464107370,18292.8168936,-49
1643464107370,18292.8168964,-47
1643464107370,18292.8168992,-32
1643464107370,18292.8169021,-14
1643464107392,18292.816905,-16
1643464107392,18292.8169078,-16
1643464107392,18292.8169107,9
1643464107392,18292.8169135,40
1643464107392,18292.8169163,98
1643464107392,18292.8169192,148
1643464107392,18292.8169219,115
1643464107392,18292.8169247,129
1643464107392,18292.8169275,226
1643464107392,18292.8169303,247
1643464107414,18292.816933,204
1643464107414,18292.8169409,188
1643464107414,18292.8169441,164
1643464107414,18292.8169492,117
1643464107414,18292.8169523,68
1643464107414,18292.8169564,4
1643464107414,18292.8169606,-42
1643464107414,18292.8169647,-73
1643464107414,18292.8169685,-96
1643464107414,18292.8169715,-89
1643464107437,18292.8169758,-108
1643464107437,18292.8169787,-143
1643464107437,18292.8169837,-103
1643464107437,18292.8169865,-63
1643464107437,18292.8169895,-89
1643464107437,18292.8169924,-113
1643464107437,18292.8169953,-115
1643464107437,18292.8169982,-113
1643464107437,18293.3206118,-80
1643464107437,18293.3206389,-68
1643464107459,18293.3206461,-84
1643464107459,18293.3206497,-61
1643464107459,18293.3206527,-32
1643464107459,18293.3206556,-56
1643464107459,18293.3206586,-77
1643464107459,18293.3206614,-54
1643464107459,18293.3206644,-44
1643464107459,18293.3206673,-73
1643464107459,18293.3206708,-75
1643464107459,18293.3206739,-58
1643464107481,18293.3206769,-77
1643464107481,18293.3206812,-68
1643464107481,18293.3206841,-30
1643464107481,18293.3206869,-63
1643464107481,18293.3207585,-106
1643464107481,18293.3207673,-68
1643464107481,18293.3207707,-25
1643464107481,18293.3207736,-56
1643464107481,18293.3207765,-106
1643464107481,18293.3207794,-94
1643464107503,18293.3207826,-58
1643464107503,18293.3207857,-70
1643464107503,18293.3207889,-103
1643464107503,18293.3207936,-82
1643464107503,18293.3207966,-40
1643464107503,18293.3207994,-30
1643464107503,18293.3208023,-30
1643464107503,18293.3208053,-32
1643464107503,18293.3208133,-61
1643464107503,18293.3208176,-75
1643464107526,18293.3208209,-40
1643464107526,18293.3208267,-14
1643464107526,18293.3208299,-37
1643464107526,18293.3208349,-47
1643464107926,18293.3208381,-4
1643464107926,18293.3208412,4
1643464107926,18293.3208442,-42
1643464107926,18293.3208471,-49
1643464107926,18293.32085,-21
1643464107926,18293.3208529,-25
1643464107926,18293.3208557,-30
1643464107926,18293.3208586,7
1643464107926,18293.3208616,56
1643464107926,18293.3208645,65
1643464107949,18293.3208675,54
1643464107949,18293.3208703,44
1643464107949,18293.3208733,21
1643464107949,18293.3208765,7
1643464107949,18293.3208794,23
1643464107949,18293.3208822,47
1643464107949,18293.3208852,28
1643464107949,18293.320888,11
1643464107949,18293.320891,42
1643464107949,18293.320894,23
1643464107969,18293.3208981,-32
1643464107969,18293.3209012,7
1643464107969,18293.3209054,87
1643464107969,18293.3209084,179
1643464107969,18293.3209127,530
1643464107969,18293.3209159,1182
1643464107969,18293.3209209,1660
1643464107969,18293.3209238,1300
1643464107969,18293.3209268,318
1643464107969,18293.3209317,-141
1643464107993,18293.3209368,7
1643464107993,18293.3209416,-7
1643464107993,18293.3209451,-106
1643464107993,18293.3209485,-61
1643464107993,18293.3209534,-61
1643464107993,18293.3209577,-115
1643464107993,18293.3209624,-108
1643464107993,18293.8706091,-61
1643464107993,18293.8706201,-30
1643464107993,18293.8706236,-30
1643464108015,18293.8706267,-18
1643464108015,18293.8706298,4
1643464108015,18293.8706331,0
1643464108015,18293.870636,-14
1643464108015,18293.8706388,-4
1643464108015,18293.8706417,23
1643464108015,18293.8706451,63
1643464108015,18293.8706489,84
1643464108015,18293.8706522,89
1643464108015,18293.870655,115
1643464108036,18293.8706577,150
1643464108036,18293.8706606,164
1643464108036,18293.8706634,186
1643464108036,18293.8706661,207
1643464108036,18293.8706689,169
1643464108036,18293.8706717,89
1643464108036,18293.8706746,35
1643464108036,18293.8706774,-21
1643464108036,18293.8706802,-91
1643464108036,18293.8707319,-131
1643464108060,18293.8707545,-179
1643464108060,18293.8707583,-195
1643464108060,18293.8707615,-143
1643464108060,18293.8707643,-134
1643464108060,18293.8707675,-193
1643464108060,18293.870772,-209
1643464108060,18293.8707922,-148
1643464108060,18293.870797,-98
1643464108060,18293.8708009,-139
1643464108060,18293.8708043,-183
1643464108081,18293.8708071,-150
1643464108081,18293.8708098,-103
1643464108081,18293.8708126,-101
1643464108081,18293.8708154,-106
1643464108527,18293.8708182,-77
1643464108527,18293.870821,-61
1643464108527,18293.8708238,-80
1643464108527,18293.8708266,-96
1643464108527,18293.8708294,-120
1643464108527,18293.8708331,-131
1643464108527,18293.8708366,-106
1643464108527,18293.8708396,-89
1643464108527,18293.8708426,-94
1643464108527,18293.8708454,-98
1643464108547,18293.8708481,-77
1643464108547,18293.8708509,-37
1643464108547,18293.8708536,-47
1643464108547,18293.8708565,-87
1643464108547,18293.8708594,-80
1643464108547,18293.8708622,-61
1643464108547,18293.870865,-70
1643464108547,18293.8708677,-82
1643464108547,18293.8708705,-82
1643464108547,18293.8708732,-65
1643464108570,18293.8708762,-25
1643464108570,18293.870879,0
1643464108570,18293.8708819,-37
1643464108570,18293.8708847,-65
1643464108570,18293.8708875,-56
1643464108570,18293.8708903,-73
1643464108570,18293.8708931,-75
1643464108570,18293.8708958,-40
1643464108570,18293.8708986,-11
1643464108570,18293.8709014,9
1643464108594,18293.8709087,16
1643464108594,18293.8709117,-11
1643464108594,18293.8709147,-51
1643464108594,18293.8709176,-70
1643464108594,18293.8709207,-73
1643464108594,18293.870925,-77
1643464108594,18294.471979,-87
1643464108594,18294.4719984,-61
1643464108594,18294.4720041,-9
1643464108594,18294.4720088,0
1643464108615,18294.4720137,7
1643464108615,18294.4720169,35
1643464108615,18294.4720208,21
1643464108615,18294.4720236,-47
1643464108615,18294.4720263,-82
1643464108615,18294.4720291,-61
1643464108615,18294.4720318,-47
1643464108615,18294.4720345,-58
1643464108615,18294.4720372,-56
1643464108615,18294.4720399,-37
1643464108637,18294.4720427,-18
1643464108637,18294.4720454,-4
1643464108637,18294.4720481,-9
1643464108637,18294.4720508,73
1643464108637,18294.4720535,412
1643464108637,18294.4720562,1027
1643464108637,18294.472059,1559
1643464108637,18294.4720619,1359
1643464108637,18294.4720648,447
1643464108637,18294.4720676,-129
1643464108661,18294.4720705,-35
1643464108661,18294.4720734,-14
1643464108661,18294.4720769,-153
1643464108661,18294.4720799,-103
1643464108661,18294.4720851,-44
1643464108661,18294.4720882,-89
1643464108661,18294.4720929,-80
1643464108661,18294.4720964,-54
1643464108661,18294.4721009,-84
1643464108661,18294.4721039,-77
1643464108682,18294.4721085,-30
1643464108682,18294.4721115,-21
1643464108682,18294.4721143,-7
1643464108682,18294.4721172,32
1643464109127,18294.4721219,56
1643464109127,18294.472125,94
1643464109127,18294.4721279,148
1643464109127,18294.4721307,167
1643464109127,18294.4721335,169
1643464109127,18294.4721362,207
1643464109127,18294.4721389,245
1643464109127,18294.4721417,254
1643464109127,18294.4721444,282
1643464109127,18294.4721471,318
1643464109148,18294.4721499,289
1643464109148,18294.4721526,223
1643464109148,18294.4721553,164
1643464109148,18294.472158,84
1643464109148,18294.4721608,-21
1643464109148,18294.4721635,-94
1643464109148,18294.4721662,-110
1643464109148,18294.4721689,-101
1643464109148,18294.4721717,-110
1643464109148,18294.4721744,-134
1643464109171,18294.4721772,-103
1643464109171,18294.4721798,-63
1643464109171,18294.4721827,-103
1643464109171,18294.4721857,-136
1643464109171,18294.4721885,-65
1643464109171,18294.4721911,2
1643464109171,18294.4721941,-37
1643464109171,18294.4721969,-89
1643464109171,18294.4721996,-63
1643464109171,18294.4722029,-32
1643464109193,18294.4722057,-73
1643464109193,18294.4722083,-106
1643464109193,18294.472211,-68
1643464109193,18294.4722138,-23
1643464109193,18294.4722166,-37
1643464109193,18295.0700724,-68
1643464109193,18295.070094,-47
1643464109193,18295.070098,-14
1643464109193,18295.0701034,-28
1643464109193,18295.0701066,-56
1643464109215,18295.0701118,-61
1643464109215,18295.0701147,-51
1643464109215,18295.070119,-30
1643464109215,18295.0701241,-40
1643464109215,18295.0701273,-58
1643464109215,18295.0701323,-21
1643464109215,18295.0701355,0
1643464109215,18295.0701404,-61
1643464109215,18295.0701435,-84
1643464109215,18295.0701484,-42
1643464109238,18295.0701515,-73
1643464109238,18295.0701567,-139
1643464109238,18295.0701599,-127
1643464109238,18295.0701648,-94
1643464109238,18295.0701681,-101
1643464109238,18295.0701734,-122
1643464109238,18295.0701766,-98
1643464109238,18295.0701816,-23
1643464109238,18295.0701848,28
1643464109238,18295.0701896,18
1643464109259,18295.0701928,-7
1643464109259,18295.0701978,-18
1643464109259,18295.070201,-28
1643464109259,18295.0702061,-42
1643464109259,18295.0702093,-47
1643464109259,18295.0702145,-16
1643464109259,18295.0702177,7
1643464109259,18295.0702226,-47
1643464109259,18295.0702257,-80
1643464109259,18295.0702305,-23
1643464109281,18295.0702336,16
1643464109281,18295.0702385,0
1643464109281,18295.0702417,-9
1643464109281,18295.0702464,113
1643464109637,18295.0702504,527
1643464109637,18295.0702533,1189
1643464109637,18295.0702564,1649
1643464109637,18295.0702592,1281
1643464109637,18295.0702622,320
1643464109637,18295.070265,-143
1643464109637,18295.0702683,-9
1643464109637,18295.0702718,2
1643464109637,18295.0702747,-129
1643464109637,18295.0702779,-136
1643464109660,18295.0702808,-110
1643464109660,18295.0702838,-108
1643464109660,18295.0702867,-89
1643464109660,18295.0702903,-80
1643464109660,18295.0702931,-65
1643464109660,18295.070296,-40
1643464109660,18295.0702988,-28
1643464109660,18295.0703017,9
1643464109660,18295.0703046,37
1643464109660,18295.0703074,14
1643464109682,18295.0703102,4
1643464109682,18295.070313,63
1643464109682,18295.0703159,129
1643464109682,18295.0703189,162
1643464109682,18295.0703217,174
1643464109682,18295.0703245,186
1643464109682,18295.0703278,219
1643464109682,18295.0703308,266
1643464109682,18295.0703336,270
1643464109682,18295.0703365,230
1643464109704,18295.0703393,181
1643464109704,18295.0703423,150
1643464109704,18295.0703453,110
1643464109704,18295.0703483,32
1643464109704,18295.5702458,-25
1643464109704,18295.5702594,-40
1643464109704,18295.5702651,-75
1643464109704,18295.5702702,-139
1643464109704,18295.5702734,-169
1643464109704,18295.5702781,-162
1643464109727,18295.5702809,-148
1643464109727,18295.570284,-148
1643464109727,18295.5702892,-146
1643464109727,18295.570294,-124
1643464109727,18295.570299,-113
1643464109727,18295.5703021,-122
1643464109727,18295.5703069,-101
1643464109727,18295.5703111,-75
1643464109727,18295.5703157,-103
1643464109727,18295.5703197,-148
1643464109748,18295.5703229,-153
1643464109748,18295.5703276,-143
1643464109748,18295.5703308,-106
1643464109748,18295.5703355,-61
1643464109748,18295.5703404,-89
1643464109748,18295.570345,-101
1643464109748,18295.5703483,-49
1643464109748,18295.5703531,-70
1643464109748,18295.5703562,-136
1643464109748,18295.5703602,-113
1643464109771,18295.5703632,-47
1643464109771,18295.5703679,-56
1643464109771,18295.5703708,-77
1643464109771,18295.570374,-37
1643464109771,18295.5703786,-16
1643464109771,18295.5703833,-56
1643464109771,18295.5703871,-82
1643464109771,18295.5703902,-44
1643464109771,18295.5703948,-4
1643464109771,18295.5703991,-30
1643464109793,18295.5704038,-70
1643464109793,18295.5704081,-73
1643464109793,18295.5704126,-110
1643464109793,18295.5704166,-153
1643464110281,18295.5704212,-124
1643464110281,18295.5704248,-70
1643464110281,18295.5704277,-49
1643464110281,18295.5704305,-65
1643464110281,18295.5704334,-87
1643464110281,18295.5704363,-75
1643464110281,18295.5704392,-30
1643464110281,18295.5704421,2
1643464110281,18295.570445,14
1643464110281,18295.5704478,-7
1643464110304,18295.5704506,-61
1643464110304,18295.5704535,-61
1643464110304,18295.5704564,-23
1643464110304,18295.5704592,-35
1643464110304,18295.5704625,-51
1643464110304,18295.5704653,-7
1643464110304,18295.5704685,40
1643464110304,18295.5704716,21
1643464110304,18295.5704766,-7
1643464110304,18295.5704797,-11
1643464110327,18295.5704842,-25
1643464110327,18295.5704881,58
1643464110327,18295.5704922,402
1643464110327,18295.5704961,991
1643464110327,18295.5704992,1550
1643464110327,18295.5705039,1463
1643464110327,18295.5705086,572
1643464110327,18295.5705167,-91
1643464110327,18295.57052,0
1643464110327,18295.5705232,63
1643464110348,18295.5705262,-134
1643464110348,18295.5705303,-143
1643464110348,18295.5705334,0
1643464110348,18296.2187205,7
1643464110348,18296.2187311,-96
1643464110348,18296.2187344,-139
1643464110348,18296.2187373,-68
1643464110348,18296.2187401,-2
1643464110348,18296.2187428,-49
1643464110348,18296.2187456,-65
1643464110371,18296.2187484,42
1643464110371,18296.2187512,96
1643464110371,18296.218754,47
1643464110371,18296.2187575,42
1643464110371,18296.2187603,68
1643464110371,18296.2187631,91
1643464110371,18296.2187658,162
1643464110371,18296.2187686,195
1643464110371,18296.2187714,188
1643464110371,18296.2187742,259
1643464110393,18296.218777,292
1643464110393,18296.2187798,197
1643464110393,18296.2187826,153
1643464110393,18296.2187853,164
1643464110393,18296.2187882,89
1643464110393,18296.2187932,4
1643464110393,18296.2187972,-28
1643464110393,18296.218802,-77
1643464110393,18296.218805,-129
1643464110393,18296.2188089,-129
1643464110414,18296.2188125,-120
1643464110414,18296.218819,-148
1643464110414,18296.2188218,-157
1643464110414,18296.2188253,-103
1643464110414,18296.2188293,-51
1643464110414,18296.2188322,-80
1643464110414,18296.2188359,-113
1643464110414,18296.218839,-61
1643464110414,18296.2188427,-37
1643464110414,18296.2188465,-80
1643464110437,18296.2188503,-77
1643464110437,18296.2188533,-37
1643464110437,18296.218857,-37
1643464110437,18296.21886,-51
1643464110814,18296.2188638,-65
1643464110814,18296.2188674,-70
1643464110814,18296.2188702,-32
1643464110814,18296.218873,0
1643464110814,18296.2188759,-23
1643464110814,18296.2188786,-35
1643464110814,18296.2188814,-16
1643464110814,18296.2188843,-28
1643464110814,18296.218887,-42
1643464110814,18296.2188898,-21
1643464110837,18296.2188926,-32
1643464110837,18296.2188954,-75
1643464110837,18296.2188983,-51
1643464110837,18296.218901,-21
1643464110837,18296.2189038,-58
1643464110837,18296.2189067,-75
1643464110837,18296.2189108,-21
1643464110837,18296.2189136,11
1643464110837,18296.218917,-4
1643464110837,18296.2189198,-37
1643464110859,18296.2189226,-63
1643464110859,18296.2189253,-18
1643464110859,18296.2189281,49
1643464110859,18296.218931,32
1643464110859,18296.2189337,-23
1643464110859,18296.2189365,-49
1643464110859,18296.2189392,-35
1643464110859,18296.2189421,18
1643464110859,18296.2189449,32
1643464110859,18296.2189477,-28
1643464110881,18296.2189505,-51
1643464110881,18296.2189533,-14
1643464110881,18296.7651615,-9
1643464110881,18296.7651746,-44
1643464110881,18296.7651799,-37
1643464110881,18296.7651851,-14
1643464110881,18296.7651881,-28
1643464110881,18296.7651912,131
1643464110881,18296.765196,692
1643464110881,18296.7651995,1390
1643464110903,18296.7652042,1564
1643464110903,18296.7652072,890
1643464110903,18296.7652112,49
1643464110903,18296.7652144,-129
1643464110903,18296.7652191,-23
1643464110903,18296.7652224,-101
1643464110903,18296.7652255,-122
1643464110903,18296.7652302,-54
1643464110903,18296.7652346,-73
1643464110903,18296.7652392,-141
1643464110929,18296.7652423,-183
1643464110929,18296.7652471,-164
1643464110929,18296.7652514,-122
1643464110929,18296.7652561,-96
1643464110929,18296.7652608,-80
1643464110929,18296.7652654,-73
1643464110929,18296.7652683,-49
1643464110929,18296.7652713,-9
1643464110929,18296.765276,-2
1643464110929,18296.7652792,4
1643464110948,18296.7652831,56
1643464110948,18296.7652861,84
1643464110948,18296.7652909,61
1643464110948,18296.7652938,82
1643464110948,18296.7652986,143
1643464110948,18296.765303,146
1643464110948,18296.765308,148
1643464110948,18296.7653112,195
1643464110948,18296.765316,174
1643464110948,18296.7653206,84
1643464110970,18296.7653254,14
1643464110970,18296.7653284,-54
1643464110970,18296.7653333,-115
1643464110970,18296.7653362,-141
1643464111372,18296.7653411,-155
1643464111372,18296.7653441,-153
1643464111372,18296.765347,-160
1643464111372,18296.7653498,-193
1643464111372,18296.7653526,-204
1643464111372,18296.7653684,-188
1643464111372,18296.7653831,-176
1643464111372,18296.7654001,-181
1643464111372,18296.7654085,-202
1643464111372,18296.765413,-181
1643464111394,18296.7654179,-113
1643464111394,18296.7654228,-91
1643464111394,18296.7654278,-98
1643464111394,18296.7654322,-96
1643464111394,18296.7654371,-131
1643464111394,18296.7654401,-153
1643464111394,18296.7654432,-96
1643464111394,18296.7654479,-61
1643464111394,18296.7654509,-98
1643464111394,18296.765454,-89
1643464111414,18296.7654588,-4
1643464111414,18296.7654618,16
1643464111414,18296.7654649,-44
1643464111414,18296.7654698,-73
1643464111414,18296.7654727,-56
1643464111414,18296.7654758,-47
1643464111414,18296.7654802,-51
1643464111414,18296.7654843,-37
1643464111414,18296.7654883,-7
1643464111414,18296.7654933,-18
1643464111438,18296.7654973,-65
1643464111438,18297.3145967,-80
1643464111438,18297.3146082,-49
1643464111438,18297.3146118,-35
1643464111438,18297.3146149,-61
1643464111438,18297.3146179,-42
1643464111438,18297.3146214,51
1643464111438,18297.314625,65
1643464111438,18297.3146295,-11
1643464111438,18297.314634,-35
1643464111461,18297.314637,-18
1643464111461,18297.3146412,-32
1643464111461,18297.3146453,-21
1643464111461,18297.3146484,-18
1643464111461,18297.3146513,-58
1643464111461,18297.3146545,-75
1643464111461,18297.3146577,-54
1643464111461,18297.3146607,-18
1643464111461,18297.3146648,-28
1643464111461,18297.3146679,-16
1643464111481,18297.3146728,233
1643464111481,18297.3146759,770
1643464111481,18297.3146789,1382
1643464111481,18297.314682,1514
1643464111481,18297.3146852,753
1643464111481,18297.3146881,-91
1643464111481,18297.3146914,-150
1643464111481,18297.3146988,4
1643464111481,18297.3147021,-122
1643464111481,18297.3147064,-190
1643464111505,18297.3147106,-136
1643464111505,18297.3147146,-148
1643464111505,18297.3147177,-134
1643464111505,18297.3147209,-73
1643464111505,18297.3147251,-91
1643464111505,18297.3147283,-108
1643464111505,18297.3147336,-51
1643464111505,18297.3147368,-44
1643464111505,18297.3147422,-84
1643464111505,18297.3147452,-58
1643464111527,18297.3147484,7
1643464111527,18297.3147516,35
1643464111527,18297.3147567,40
1643464111527,18297.3147614,82
1643464112126,18297.3147662,141
1643464112126,18297.3147693,176
1643464112126,18297.3147723,212
1643464112126,18297.3147752,245
1643464112126,18297.3147781,245
1643464112126,18297.314781,245
1643464112126,18297.3147839,240
1643464112126,18297.3147869,164
1643464112126,18297.3147899,70
1643464112126,18297.3147928,18
1643464112148,18297.3147958,-37
1643464112148,18297.3147987,-110
1643464112148,18297.3148016,-148
1643464112148,18297.3148046,-157
1643464112148,18297.3148074,-164
1643464112148,18297.3148103,-157
1643464112148,18297.3148132,-141
1643464112148,18297.3148161,-115
1643464112148,18297.314819,-120
1643464112148,18297.314822,-171
1643464112170,18297.314825,-174
1643464112170,18297.3148279,-98
1643464112170,18297.3148308,-73
1643464112170,18297.3148338,-101
1643464112170,18297.314837,-98
1643464112170,18297.3148399,-77
1643464112170,18297.314844,-70
1643464112170,18297.3148473,-56
1643464112170,18297.3148504,-18
1643464112170,18297.3148533,9
1643464112193,18298.06468,0
1643464112193,18298.064691,-25
1643464112193,18298.0646944,-51
1643464112193,18298.0646974,-56
1643464112193,18298.0647004,-32
1643464112193,18298.0647043,-23
1643464112193,18298.0647071,-56
1643464112193,18298.0647101,-75
1643464112193,18298.064713,-30
1643464112193,18298.0647172,11
1643464112214,18298.0647201,-30
1643464112214,18298.064723,-84
1643464112214,18298.0647272,-70
1643464112214,18298.0647302,-30
1643464112214,18298.0647341,0
1643464112214,18298.0647371,7
1643464112214,18298.0647424,-23
1643464112214,18298.0647455,-35
1643464112214,18298.0647506,-30
1643464112214,18298.0647535,-58
1643464112237,18298.0647565,-68
1643464112237,18298.0647597,-35
1643464112237,18298.0647626,-21
1643464112237,18298.0647656,-11
1643464112237,18298.0647694,7
1643464112237,18298.0647723,-7
1643464112237,18298.0647762,-21
1643464112237,18298.0647791,-11
1643464112237,18298.064783,61
1643464112237,18298.064786,381
1643464112260,18298.0647897,1010
1643464112260,18298.0647927,1587
1643464112260,18298.0647975,1385
1643464112260,18298.0648003,374
1643464112260,18298.0648033,-261
1643464112260,18298.0648071,-110
1643464112260,18298.0648107,-11
1643464112260,18298.0648152,-150
1643464112260,18298.0648182,-134
1643464112260,18298.0648218,-51
1643464112280,18298.0648248,-84
1643464112280,18298.0648288,-110
1643464112280,18298.0648317,-47
1643464112280,18298.0648346,9
1643464112481,18298.0648395,2
1643464112481,18298.0648424,2
1643464112481,18298.0648454,44
1643464112481,18298.0648482,61
1643464112481,18298.0648509,18
1643464112481,18298.0648537,30
1643464112481,18298.0648564,108
1643464112481,18298.0648591,131
1643464112481,18298.0648619,113
1643464112481,18298.0648655,127
1643464112503,18298.0648682,155
1643464112503,18298.0648718,171
1643464112503,18298.0648746,200
1643464112503,18298.0648774,219
1643464112503,18298.0648801,212
1643464112503,18298.0648828,169
1643464112503,18298.0648856,94
1643464112503,18298.0648891,47
1643464112503,18298.0648921,18
1643464112503,18298.0648949,-54
1643464112526,18298.0648979,-115
1643464112526,18298.0649017,-110
1643464112526,18298.0649047,-84
1643464112526,18298.0649084,-70
1643464112526,18298.0649113,-89
1643464112526,18298.064915,-150
1643464112526,18298.064918,-174
1643464112526,18298.0649209,-169
1643464112526,18298.0649249,-195
1643464112526,18298.4181463,-141
1643464112547,18298.4181593,-32
1643464112547,18298.4181644,-73
1643464112547,18298.4181693,-167
1643464112547,18298.4181742,-108
1643464112547,18298.4181791,-32
1643464112547,18298.4181822,-49
1643464112547,18298.4181861,-35
1643464112547,18298.4181893,-4
1643464112547,18298.4181942,-16
1643464112547,18298.4181974,4
1643464112570,18298.4182436,-4
1643464112570,18298.4182508,-82
1643464112570,18298.4182543,-108
1643464112570,18298.4182576,-94
1643464112570,18298.4182618,-82
1643464112570,18298.4182649,-51
1643464112570,18298.4182699,-42
1643464112570,18298.4182728,-75
1643464112570,18298.4182759,-115
1643464112570,18298.4182808,-94
1643464112593,18298.418284,-21
1643464112593,18298.4182888,9
1643464112593,18298.4182929,18
1643464112593,18298.4182979,32
1643464112593,18298.4183012,-44
1643464112593,18298.418306,-96
1643464112593,18298.4183106,-32
1643464112593,18298.4183154,-25
1643464112593,18298.4183198,-94
1643464112593,18298.4183246,-77
1643464112613,18298.4183291,-30
1643464112613,18298.4183338,-51
1643464112613,18298.4183368,-68
1643464112613,18298.4183399,-65
1643464112613,18298.4183439,-77
1643464112613,18298.418347,-40
1643464112613,18298.4183518,167
1643464112613,18298.4183565,685
1643464112613,18298.4183613,1397
1643464112613,18298.4183643,1689
1643464112637,18298.4183685,1013
1643464112637,18298.4183716,23
1643464112637,18298.4183764,-181
1643464112637,18298.4183809,18
1643464113015,18298.4183859,-120
1643464113015,18298.418389,-245
1643464113015,18298.4183921,-124
1643464113015,18298.418395,-94
1643464113015,18298.4183979,-167
1643464113015,18298.4184007,-139
1643464113015,18298.4184036,-87
1643464113015,18298.4184065,-96
1643464113015,18298.4184093,-87
1643464113015,18298.4184122,-49
1643464113037,18298.4184151,-28
1643464113037,18298.418418,-23
1643464113037,18298.4184209,4
1643464113037,18298.4184238,30
1643464113037,18298.4184267,30
1643464113037,18298.4184297,82
1643464113037,18298.4184327,162
1643464113037,18298.4184359,134
1643464113037,18298.4184414,73
1643464113037,18298.4184444,150
1643464113059,18298.4184475,226
1643464113059,18298.4184511,155
1643464113059,18298.4184541,82
1643464113059,18298.4184571,91
1643464113059,18298.41846,75
1643464113059,18298.4184638,25
1643464113059,18298.418467,-9
1643464113059,18298.4184712,-87
1643464113059,18298.9645055,-174
1643464113059,18298.9645173,-160
1643464113080,18298.9645215,-87
1643464113080,18298.9645244,-115
1643464113080,18298.9645274,-204
1643464113080,18298.9645302,-181
1643464113080,18298.964533,-129
1643464113080,18298.9645358,-162
1643464113080,18298.9645387,-150
1643464113080,18298.9645415,-80
1643464113080,18298.9645444,-115
1643464113080,18298.9645472,-230
1643464113103,18298.9645501,-242
1643464113103,18298.9645529,-129
1643464113103,18298.9645557,-51
1643464113103,18298.9645585,-91
1643464113103,18298.9645614,-150
1643464113103,18298.9645642,-108
1643464113103,18298.9645669,-56
1643464113103,18298.9645704,-120
1643464113103,18298.9645732,-169
1643464113103,18298.964576,-94
1643464113126,18298.9645788,-54
1643464113126,18298.9645815,-115
1643464113126,18298.9645843,-113
1643464113126,18298.9645871,-54
1643464113126,18298.9645899,-70
1643464113126,18298.9645928,-103
1643464113126,18298.9645971,-63
1643464113126,18298.9646014,-54
1643464113126,18298.9646073,-141
1643464113126,18298.9646116,-164
1643464113147,18298.964615,-77
1643464113147,18298.9646199,-7
1643464113147,18298.9646247,-4
1643464113147,18298.9646295,-47
1643464113147,18298.9646324,-63
1643464113147,18298.9646356,0
1643464113147,18298.9646404,21
1643464113147,18298.9646433,-73
1643464113147,18298.9646462,-108
1643464113147,18298.9646492,14
1643464113170,18298.9646541,131
1643464113170,18298.964657,77
1643464113170,18298.9646598,-84
1643464113170,18298.9646627,-153
1643464113526,18298.9646657,-89
1643464113526,18298.9646687,21
1643464113526,18298.9646719,247
1643464113526,18298.9646748,711
1643464113526,18298.9646776,1326
1643464113526,18298.9646805,1580
1643464113526,18298.9646834,925
1643464113526,18298.9646862,18
1643464113526,18298.9646891,-139
1643464113526,18298.9646919,18
1643464113547,18298.9646949,-80
1643464113547,18298.9646978,-129
1643464113547,18298.9647006,-70
1643464113547,18298.9647034,-146
1643464113547,18298.9647063,-223
1643464113547,18298.9647091,-108
1643464113547,18298.9647121,25
1643464113547,18298.9647149,-16
1643464113547,18298.9647178,-103
1643464113547,18298.9647206,-87
1643464113571,18298.9647235,-2
1643464113571,18298.9647264,73
1643464113571,18298.9647292,96
1643464113571,18298.9647321,110
1643464113571,18298.9647351,141
1643464113571,18298.9647379,131
1643464113571,18298.9647407,108
1643464113571,18299.4704331,186
1643464113571,18299.4704475,261
1643464113571,18299.4704816,176
1643464113593,18299.4704893,94
1643464113593,18299.4704927,155
1643464113593,18299.4704977,200
1643464113593,18299.4705008,148
1643464113593,18299.4705059,61
1643464113593,18299.470509,-44
1643464113593,18299.4705138,-98
1643464113593,18299.4705169,-89
1643464113593,18299.4705217,-117
1643464113593,18299.4705251,-164
1643464113615,18299.4705301,-171
1643464113615,18299.4705332,-176
1643464113615,18299.4705379,-167
1643464113615,18299.470541,-155
1643464113615,18299.4705457,-171
1643464113615,18299.4705488,-169
1643464113615,18299.4705518,-134
1643464113615,18299.4705565,-94
1643464113615,18299.4705595,-58
1643464113615,18299.4705625,-73
1643464113637,18299.4705654,-106
1643464113637,18299.4705701,-103
1643464113637,18299.4705733,-115
1643464113637,18299.4705782,-131
1643464113637,18299.4705812,-115
1643464113637,18299.4705859,-131
1643464113637,18299.4705889,-150
1643464113637,18299.4705938,-94
1643464113637,18299.4705969,-30
1643464113637,18299.4706015,-73
1643464113659,18299.4706046,-150
1643464113659,18299.4706103,-117
1643464113659,18299.4706134,-30
1643464113659,18299.4706189,-58
1643464113659,18299.4706221,-162
1643464113659,18299.4706261,-181
1643464113659,18299.4706291,-141
1643464113659,18299.4706321,-129
1643464113659,18299.470637,-98
1643464113659,18299.4706401,-44
1643464113681,18299.4706431,-28
1643464113681,18299.4706461,-35
1643464113681,18299.470651,-47
1643464113681,18299.470654,-80
1643464114170,18299.4706592,-103
1643464114170,18299.4706623,-84
1643464114170,18299.4706652,-49
1643464114170,18299.4706681,-42
1643464114170,18299.470671,-54
1643464114170,18299.4706746,-32
1643464114170,18299.4706774,7
1643464114170,18299.4706803,-21
1643464114170,18299.4706832,-106
1643464114170,18299.4706861,-127
1643464114194,18299.4706889,21
1643464114194,18299.4706918,414
1643464114194,18299.4706947,1060
1643464114194,18299.4706986,1637
1643464114194,18299.4707014,1463
1643464114194,18299.4707044,504
1643464114194,18299.4707078,-139
1643464114194,18299.470711,-61
1643464114194,18299.4707142,-18
1643464114194,18299.470717,-150
1643464114215,18299.4707202,-139
1643464114215,18299.4707232,-113
1643464114215,18299.4707261,-162
1643464114215,18299.4707289,-162
1643464114215,18299.4707317,-134
1643464114215,18299.4707346,-129
1643464114215,18300.1168944,-56
1643464114215,18300.1169108,23
1643464114215,18300.1169156,-4
1643464114215,18300.1169187,-37
1643464114238,18300.1169218,-2
1643464114238,18300.1169249,-7
1643464114238,18300.1169286,-16
1643464114238,18300.1169337,63
1643464114238,18300.1169385,153
1643464114238,18300.1169437,174
1643464114238,18300.1169466,204
1643464114238,18300.1169497,266
1643464114238,18300.1169527,266
1643464114238,18300.1169556,223
1643464114259,18300.1169586,197
1643464114259,18300.1169628,160
1643464114259,18300.1169659,110
1643464114259,18300.1169699,58
1643464114259,18300.1169729,-47
1643464114259,18300.116977,-141
1643464114259,18300.11698,-136
1643464114259,18300.1169839,-106
1643464114259,18300.116987,-160
1643464114259,18300.1169899,-235
1643464114281,18300.1169929,-202
1643464114281,18300.1169958,-124
1643464114281,18300.1169988,-124
1643464114281,18300.1170018,-169
1643464114281,18300.1170059,-164
1643464114281,18300.1170088,-115
1643464114281,18300.1170138,-75
1643464114281,18300.1170167,-68
1643464114281,18300.1170199,-91
1643464114281,18300.1170246,-65
1643464114304,18300.1170274,-18
1643464114304,18300.1170304,-30
1643464114304,18300.1170353,-30
1643464114304,18300.1170382,-4
1643464114304,18300.1170419,-42
1643464114304,18300.1170462,-65
1643464114304,18300.1170492,-16
1643464114304,18300.1170533,-14
1643464114304,18300.1170562,-63
1643464114304,18300.1170592,-84
1643464114328,18300.1170622,-80
1643464114328,18300.1170663,-56
1643464114328,18300.1170693,-35
1643464114328,18300.1170744,-2
1643464114726,18300.1170773,0
1643464114726,18300.1170804,-82
1643464114726,18300.1170832,-131
1643464114726,18300.1170861,-40
1643464114726,18300.1170889,35
1643464114726,18300.1170917,-30
1643464114726,18300.1170944,-49
1643464114726,18300.1170973,56
1643464114726,18300.1171001,70
1643464114726,18300.1171029,-40
1643464114747,18300.1171057,-54
1643464114747,18300.1171086,23
1643464114747,18300.1171114,14
1643464114747,18300.1171142,-37
1643464114747,18300.1171171,-61
1643464114747,18300.1171199,-65
1643464114747,18300.1171228,7
1643464114747,18300.1171256,96
1643464114747,18300.1171286,47
1643464114747,18300.1171542,-80
1643464114770,18300.1171626,-61
1643464114770,18300.1171672,343
1643464114770,18300.1171721,1093
1643464114770,18300.1171758,1738
1643464114770,18300.1171798,1632
1643464114770,18300.6651748,654
1643464114770,18300.6651884,-122
1643464114770,18300.6651921,-40
1643464114770,18300.6651975,87
1643464114770,18300.6652007,-110
1643464114793,18300.6652059,-160
1643464114793,18300.6652092,-58
1643464114793,18300.6652139,-56
1643464114793,18300.6652172,-113
1643464114793,18300.6652219,-160
1643464114793,18300.665225,-171
1643464114793,18300.6652297,-101
1643464114793,18300.6652328,-35
1643464114793,18300.6652359,-54
1643464114793,18300.6652399,-61
1643464114815,18300.6652431,-37
1643464114815,18300.665248,-40
1643464114815,18300.6652523,-7
1643464114815,18300.6652564,75
1643464114815,18300.6652596,106
1643464114815,18300.6652643,113
1643464114815,18300.6652689,153
1643464114815,18300.6652737,174
1643464114815,18300.6652782,169
1643464114815,18300.6652844,204
1643464114837,18300.6652877,263
1643464114837,18300.6652908,233
1643464114837,18300.665296,120
1643464114837,18300.6652992,49
1643464114837,18300.6653041,2
1643464114837,18300.6653088,-87
1643464114837,18300.6653135,-122
1643464114837,18300.665318,-127
1643464114837,18300.6653228,-167
1643464114837,18300.6653273,-131
1643464114859,18300.6653322,-73
1643464114859,18300.6653354,-101
1643464114859,18300.6653401,-98
1643464114859,18300.6653449,-47
1643464114859,18300.6653497,-58
1643464114859,18300.6653546,-108
1643464114859,18300.6653595,-136
1643464114859,18300.6653625,-146
1643464114859,18300.6653657,-124
1643464114859,18300.6653705,-84
1643464114881,18300.6653753,-80
1643464114881,18300.6653801,-113
1643464114881,18300.6653848,-103
1643464114881,18300.6653897,-42
1643464115236,18300.6653929,-30
1643464115236,18300.6653959,-70
1643464115236,18300.6653989,-47
1643464115236,18300.6654018,-14
1643464115236,18300.6654048,-75
1643464115236,18300.6654076,-143
1643464115236,18300.6654106,-131
1643464115236,18300.6654137,-89
1643464115236,18300.6654165,-56
1643464115236,18300.6654194,-56
1643464115259,18300.6654223,-117
1643464115259,18300.6654252,-160
1643464115259,18300.6654285,-115
1643464115259,18300.6654314,-73
1643464115259,18300.6654343,-51
1643464115259,18300.6654372,-49
1643464115259,18300.6654421,-75
1643464115259,18300.6654454,-37
1643464115259,18300.6654501,25
1643464115259,18300.6654533,4
1643464115281,18300.665458,-18
1643464115281,18300.6654612,-4
1643464115281,18300.6654659,-56
1643464115281,18300.665469,-108
1643464115281,18301.1703748,-70
1643464115281,18301.170387,-54
1643464115281,18301.1703926,-82
1643464115281,18301.1703978,-47
1643464115281,18301.1704008,4
1643464115281,18301.1704039,4
1643464115304,18301.1704079,-9
1643464115304,18301.1704109,-32
1643464115304,18301.1704157,-94
1643464115304,18301.1704195,-146
1643464115304,18301.1704236,4
1643464115304,18301.1704267,523
1643464115304,18301.1704314,1246
1643464115304,18301.1704346,1668
1643464115304,18301.1704394,1163
1643464115304,18301.1704423,113
1643464115327,18301.1704453,-249
1643464115327,18301.17045,-23
1643464115327,18301.1704529,-77
1643464115327,18301.170456,-233
1643464115327,18301.17046,-169
1643464115327,18301.170463,-120
1643464115327,18301.1704669,-141
1643464115327,18301.1704699,-98
1643464115327,18301.1704738,-49
1643464115327,18301.1704768,-73
1643464115347,18301.1704817,-87
1643464115347,18301.1704862,-47
1643464115347,18301.1704911,-23
1643464115347,18301.1704955,-44
1643464115347,18301.1705002,-40
1643464115347,18301.1705047,9
1643464115347,18301.1705086,73
1643464115347,18301.1705117,110
1643464115347,18301.1705164,94
1643464115347,18301.1705206,84
1643464115371,18301.1705247,131
1643464115371,18301.1705278,171
1643464115371,18301.1705325,186
1643464115371,18301.1705369,207
1643464115371,18301.1705416,223
1643464115371,18301.1705458,183
1643464115371,18301.1705509,91
1643464115371,18301.1705541,25
1643464115371,18301.1705589,-16
1643464115371,18301.1705633,-91
1643464115393,18301.170568,-143
1643464115393,18301.1705709,-136
1643464115393,18301.1705739,-131
1643464115393,18301.1705787,-143
1643464115837,18301.1705832,-150
1643464115837,18301.1705865,-122
1643464115837,18301.1705893,-91
1643464115837,18301.1705922,-101
1643464115837,18301.170595,-91
1643464115837,18301.1705978,-54
1643464115837,18301.1706007,-63
1643464115837,18301.1706035,-115
1643464115837,18301.1706063,-146
1643464115837,18301.1706167,-139
1643464115859,18301.1706259,-110
1643464115859,18301.17063,-106
1643464115859,18301.1706329,-124
1643464115859,18301.1706357,-110
1643464115859,18301.1706384,-51
1643464115859,18301.1706412,-47
1643464115859,18301.170644,-80
1643464115859,18301.1706655,-23
1643464115859,18301.170669,49
1643464115859,18301.1706721,-4
1643464115880,18301.1706765,-131
1643464115880,18301.1706801,-181
1643464115880,18301.1706851,-134
1643464115880,18301.7668594,-106
1643464115880,18301.7668722,-113
1643464115880,18301.7668759,-103
1643464115880,18301.766881,-96
1643464115880,18301.766884,-54
1643464115880,18301.7668887,-7
1643464115880,18301.7668918,-37
1643464115903,18301.7668967,-75
1643464115903,18301.7668998,-65
1643464115903,18301.7669047,-54
1643464115903,18301.7669078,-54
1643464115903,18301.766913,-82
1643464115903,18301.7669171,-124
1643464115903,18301.7669218,-127
1643464115903,18301.766925,-96
1643464115903,18301.7669298,-54
1643464115903,18301.7669329,-37
1643464115926,18301.766936,-61
1643464115926,18301.7669394,-65
1643464115926,18301.7669445,-58
1643464115926,18301.7669475,-61
1643464115926,18301.7669525,-32
1643464115926,18301.7669556,-35
1643464115926,18301.7669606,-106
1643464115926,18301.7669637,-106
1643464115926,18301.7669685,-11
1643464115926,18301.766972,25
1643464115946,18301.7669767,-40
1643464115946,18301.7669798,-21
1643464115946,18301.7669845,285
1643464115946,18301.7669876,871
1643464115946,18301.7669923,1451
1643464115946,18301.7669953,1418
1643464115946,18301.7670005,565
1643464115946,18301.7670036,-134
1643464115946,18301.7670084,-106
1643464115946,18301.7670115,-56
1643464115969,18301.7670163,-226
1643464115969,18301.7670194,-183
1643464115969,18301.7670241,-44
1643464115969,18301.7670271,-49
1643464115969,18301.7670314,-58
1643464115969,18301.7670344,-16
1643464115969,18301.7670393,-18
1643464115969,18301.7670423,-14
1643464115969,18301.7670472,16
1643464115969,18301.7670502,-11
1643464115992,18301.7670551,-47
1643464115992,18301.7670583,0
1643464115992,18301.7670631,73
1643464115992,18301.7670663,103
1643464116414,18301.7670716,75
1643464116414,18301.7670745,40
1643464116414,18301.7670774,84
1643464116414,18301.7670804,204
1643464116414,18301.7670833,289
1643464116414,18301.7670861,259
1643464116414,18301.767089,242
1643464116414,18301.7670918,292
1643464116414,18301.7670954,259
1643464116414,18301.7670983,143
1643464116438,18301.7671011,73
1643464116438,18301.767104,54
1643464116438,18301.7671068,-18
1643464116438,18301.7671097,-141
1643464116438,18301.7671126,-157
1643464116438,18301.7671155,-80
1643464116438,18301.7671184,-65
1643464116438,18301.7671215,-94
1643464116438,18301.7671246,-80
1643464116438,18301.7671305,-40
1643464116463,18301.7671414,-35
1643464116463,18301.7671689,-82
1643464116463,18302.3652605,-124
1643464116463,18302.3652733,-98
1643464116463,18302.3652786,-58
1643464116463,18302.3652838,-94
1643464116463,18302.3652878,-136
1643464116463,18302.365291,-103
1643464116463,18302.3652958,-61
1643464116463,18302.3652988,-68
1643464116482,18302.3653019,-65
1643464116482,18302.365306,-44
1643464116482,18302.3653091,-73
1643464116482,18302.3653138,-80
1643464116482,18302.3653168,-16
1643464116482,18302.3653198,-11
1643464116482,18302.3653246,-94
1643464116482,18302.3653276,-127
1643464116482,18302.3653307,-58
1643464116482,18302.3653357,-25
1643464116506,18302.3653402,-101
1643464116506,18302.3653449,-89
1643464116506,18302.3653497,9
1643464116506,18302.3653545,-9
1643464116506,18302.3653581,-68
1643464116506,18302.3653613,-42
1643464116506,18302.3653662,-14
1643464116506,18302.3653691,-14
1643464116506,18302.3653722,-49
1643464116506,18302.3653771,-106
1643464116527,18302.3653801,-101
1643464116527,18302.3653832,-54
1643464116527,18302.3654037,-18
1643464116527,18302.3654077,-7
1643464116527,18302.3654108,-25
1643464116527,18302.3654139,-18
1643464116527,18302.3654336,54
1643464116527,18302.3654526,73
1643464116527,18302.365457,-2
1643464116527,18302.3654602,-56
1643464116548,18302.3654632,-14
1643464116548,18302.3654662,84
1643464116548,18302.3654691,94
1643464116548,18302.365472,-7
1643464116548,18302.3654749,-2
1643464116548,18302.3654779,82
1643464116548,18302.3654808,-16
1643464116548,18302.3654837,-96
1643464116548,18302.3654867,65
1643464116548,18302.3654896,113
1643464116572,18302.3654925,-42
1643464116572,18302.3654955,-96
1643464116572,18302.3654984,-47
1643464116572,18302.3655013,82
1643464116928,18302.3655043,466
1643464116928,18302.3655073,1088
1643464116928,18302.3655102,1637
1643464116928,18302.365513,1488
1643464116928,18302.3655159,534
1643464116928,18302.3655193,-139
1643464116928,18302.3655226,-58
1643464116928,18302.3655254,7
1643464116928,18302.3655285,-117
1643464116928,18302.3655313,-115
1643464116949,18302.3655342,-89
1643464116949,18302.3655371,-120
1643464116949,18302.3655401,-106
1643464116949,18302.3655429,-70
1643464116949,18302.3655458,-68
1643464116949,18302.3655487,-77
1643464116949,18302.3655516,-58
1643464116949,18302.3655544,-9
1643464116949,18302.3655573,14
1643464116949,18302.3655602,21
1643464116972,18302.3655631,54
1643464116972,18302.8708122,101
1643464116972,18302.8708242,150
1643464116972,18302.8708284,160
1643464116972,18302.8708331,134
1643464116972,18302.8708365,160
1643464116972,18302.8708427,202
1643464116972,18302.8708471,181
1643464116972,18302.8708527,148
1643464116972,18302.870856,169
1643464116993,18302.870861,190
1643464116993,18302.8708644,141
1643464116993,18302.8708694,47
1643464116993,18302.8708729,-40
1643464116993,18302.870878,-98
1643464116993,18302.8708822,-136
1643464116993,18302.8708874,-164
1643464116993,18302.8708907,-179
1643464116993,18302.8708957,-174
1643464116993,18302.870899,-160
1643464117015,18302.8709043,-162
1643464117015,18302.8709084,-195
1643464117015,18302.8709117,-237
1643464117015,18302.8709168,-228
1643464117015,18302.8709201,-183
1643464117015,18302.8709252,-174
1643464117015,18302.8709285,-153
1643464117015,18302.870934,-63
1643464117015,18302.8709374,-42
1643464117015,18302.8709427,-136
1643464117037,18302.870946,-148
1643464117037,18302.8709512,-68
1643464117037,18302.8709545,-77
1643464117037,18302.8709597,-108
1643464117037,18302.8709629,-18
1643464117037,18302.8709674,11
1643464117037,18302.8709707,-82
1643464117037,18302.8709758,-82
1643464117037,18302.870979,-18
1643464117037,18302.870982,-80
1643464117060,18302.8709861,-162
1643464117060,18302.8709905,-113
1643464117060,18302.8709937,-47
1643464117060,18302.8709988,-75
1643464117060,18302.8710021,-106
1643464117060,18302.8710071,-63
1643464117060,18302.8710102,-14
1643464117060,18302.8710135,-47
1643464117060,18302.8710176,-82
1643464117060,18302.8710229,-40
1643464117081,18302.8710261,0
1643464117081,18302.8710294,11
1643464117081,18302.8710345,32
1643464117081,18302.8710385,63
1643464117570,18302.8710418,84
1643464117570,18302.871045,63
1643464117570,18302.8710481,-7
1643464117570,18302.8710513,-68
1643464117570,18302.8710543,-68
1643464117570,18302.8710574,-35
1643464117570,18302.8710604,-25
1643464117570,18302.8710635,-37
1643464117570,18302.8710666,-21
1643464117570,18302.8710697,30
1643464117592,18302.8710728,42
1643464117592,18302.8710762,37
1643464117592,18302.8710792,42
1643464117592,18302.8710823,40
1643464117592,18302.8710853,190
1643464117592,18302.8710888,669
1643464117592,18302.8710921,1361
1643464117592,18302.8710973,1726
1643464117592,18302.8711004,1154
1643464117592,18302.8711036,131
1643464117615,18303.5194418,-174
1643464117615,18303.5194547,51
1643464117615,18303.5194601,-11
1643464117615,18303.5194654,-200
1643464117615,18303.5194687,-148
1643464117615,18303.5194736,-42
1643464117615,18303.5194766,-18
1643464117615,18303.5194798,-2
1643464117615,18303.5194846,-11
1643464117615,18303.5194877,-47
1643464117636,18303.5194909,-35
1643464117636,18303.5194961,-14
1643464117636,18303.5194996,-18
1643464117636,18303.5195045,-9
1643464117636,18303.5195077,2
1643464117636,18303.5195126,-18
1643464117636,18303.5195158,-40
1643464117636,18303.5195208,9
1643464117636,18303.5195257,143
1643464117636,18303.5195306,202
1643464117658,18303.5195353,146
1643464117658,18303.5195403,174
1643464117658,18303.5195435,256
1643464117658,18303.5195468,240
1643464117658,18303.5195515,200
1643464117658,18303.5195562,209
1643464117658,18303.5195614,169
1643464117658,18303.5195646,58
1643464117658,18303.5195695,-21
1643464117658,18303.5195798,-68
1643464117681,18303.5195855,-141
1643464117681,18303.5195906,-202
1643464117681,18303.519594,-176
1643464117681,18303.5195987,-141
1643464117681,18303.5196019,-148
1643464117681,18303.5196076,-155
1643464117681,18303.5196107,-204
1643464117681,18303.5196157,-247
1643464117681,18303.5196188,-200
1643464117681,18303.519624,-164
1643464117704,18303.5196272,-113
1643464117704,18303.5196319,-16
1643464117704,18303.5196368,-58
1643464117704,18303.5196416,-195
1643464117704,18303.5196446,-209
1643464117704,18303.5196479,-139
1643464117704,18303.5196526,-98
1643464117704,18303.5196572,-77
1643464117704,18303.5196622,-98
1643464117704,18303.5196671,-122
1643464117725,18303.5196721,-51
1643464117725,18303.5196752,35
1643464117725,18303.5196793,28
1643464117725,18303.5196825,-14
1643464118171,18303.5196872,-42
1643464118171,18303.5196912,-87
1643464118171,18303.5196943,-124
1643464118171,18303.5196975,-91
1643464118171,18303.5197005,-35
1643464118171,18303.5197034,-35
1643464118171,18303.5197064,-77
1643464118171,18303.5197093,-120
1643464118171,18303.5197124,-120
1643464118171,18303.5197153,-42
1643464118192,18303.5197183,21
1643464118192,18303.5197212,-28
1643464118192,18303.5197243,-37
1643464118192,18303.5197274,49
1643464118192,18303.5197306,65
1643464118192,18303.5197335,32
1643464118192,18303.5197364,9
1643464118192,18303.5197395,-23
1643464118192,18303.5197426,-28
1643464118192,18304.1147105,-14
1643464118214,18304.1147243,-14
1643464118214,18304.1147291,-16
1643464118214,18304.1147343,-25
1643464118214,18304.1147381,-21
1643464118214,18304.1147412,7
1643464118214,18304.1147463,47
1643464118214,18304.1147499,61
1643464118214,18304.114753,32
1643464118214,18304.1147569,49
1643464118214,18304.1147601,155
1643464118236,18304.1147648,369
1643464118236,18304.1147677,822
1643464118236,18304.1147708,1427
1643464118236,18304.1147756,1510
1643464118236,18304.1147803,654
1643464118236,18304.1147854,-148
1643464118236,18304.1147892,-108
1643464118236,18304.1147939,18
1643464118236,18304.1147984,-164
1643464118236,18304.1148031,-174
1643464118259,18304.1148077,-37
1643464118259,18304.1148126,-35
1643464118259,18304.1148155,-49
1643464118259,18304.1148185,11
1643464118259,18304.1148224,-28
1643464118259,18304.1148254,-162
1643464118259,18304.1148295,-153
1643464118259,18304.1148325,-56
1643464118259,18304.1148364,-65
1643464118259,18304.1148394,-84
1643464118280,18304.1148434,-42
1643464118280,18304.1148464,7
1643464118280,18304.1148503,47
1643464118280,18304.1148534,63
1643464118280,18304.1148583,70
1643464118280,18304.1148627,157
1643464118280,18304.1148666,282
1643464118280,18304.1148696,254
1643464118280,18304.1148726,115
1643464118280,18304.1148756,101
1643464118303,18304.1148797,150
1643464118303,18304.1148827,120
1643464118303,18304.1148857,51
1643464118303,18304.1148898,-25
1643464118303,18304.1148928,-89
1643464118303,18304.1148958,-87
1643464118303,18304.1148988,-89
1643464118303,18304.1149027,-136
1643464118303,18304.1149058,-131
1643464118303,18304.1149095,-80
1643464118326,18304.1149125,-82
1643464118326,18304.1149154,-106
1643464118326,18304.1149202,-91
1643464118326,18304.1149249,-96
1643464118726,18304.1149295,-120
1643464118726,18304.1149331,-113
1643464118726,18304.1149359,-98
1643464118726,18304.1149388,-113
1643464118726,18304.1149416,-113
1643464118726,18304.1149445,-56
1643464118726,18304.1149472,-16
1643464118726,18304.1149501,-61
1643464118726,18304.1149529,-84
1643464118726,18304.1149556,-84
1643464118747,18304.1149584,-120
1643464118747,18304.1149612,-98
1643464118747,18304.114964,-2
1643464118747,18304.1149669,35
1643464118747,18304.1149697,-40
1643464118747,18304.1149726,-108
1643464118747,18304.1149753,-51
1643464118747,18304.114979,-18
1643464118747,18304.6691633,-77
1643464118747,18304.6691778,-44
1643464118770,18304.6691834,25
1643464118770,18304.6691886,11
1643464118770,18304.6691922,-11
1643464118770,18304.6691972,-28
1643464118770,18304.6692003,-56
1643464118770,18304.6692034,-40
1643464118770,18304.6692085,2
1643464118770,18304.6692126,18
1643464118770,18304.6692176,16
1643464118770,18304.6692206,-11
1643464118792,18304.6692238,-21
1643464118792,18304.6692288,28
1643464118792,18304.6692334,51
1643464118792,18304.6692379,23
1643464118792,18304.6692434,35
1643464118792,18304.6692464,73
1643464118792,18304.6692497,16
1643464118792,18304.6692954,-108
1643464118792,18304.6693043,-113
1643464118792,18304.6693078,11
1643464118813,18304.6693109,58
1643464118813,18304.6693138,-11
1643464118813,18304.6693167,-42
1643464118813,18304.6693196,-7
1643464118813,18304.6693225,25
1643464118813,18304.6693254,197
1643464118813,18304.6693283,617
1643464118813,18304.6693311,1196
1643464118813,18304.6693341,1578
1643464118813,18304.6693369,1130
1643464118837,18304.6693408,190
1643464118837,18304.669344,-131
1643464118837,18304.669347,-2
1643464118837,18304.669351,-98
1643464118837,18304.6693539,-193
1643464118837,18304.6693568,-103
1643464118837,18304.6693596,-58
1643464118837,18304.6693625,-98
1643464118837,18304.6693821,-129
1643464118837,18304.6693903,-103
1643464118859,18304.6694084,-63
1643464118859,18304.6694164,-54
1643464118859,18304.6694199,-28
1643464118859,18304.6694231,32
1643464118859,18304.6694259,75
1643464118859,18304.6694288,35
1643464118859,18304.6694317,-40
1643464118859,18304.6694346,-18
1643464118859,18304.6694375,80
1643464118859,18304.6694403,106
1643464118881,18304.6694433,98
1643464118881,18304.6694463,139
1643464118881,18304.6694491,186
1643464118881,18304.669452,221
1643464119237,18304.669455,240
1643464119237,18304.6694578,216
1643464119237,18304.6694607,188
1643464119237,18304.6694637,169
1643464119237,18304.6694666,96
1643464119237,18304.6694695,-42
1643464119237,18304.6694723,-131
1643464119237,18304.6694752,-157
1643464119237,18304.6694782,-186
1643464119237,18304.669481,-200
1643464119259,18304.6694839,-200
1643464119259,18304.6694868,-190
1643464119259,18304.6694897,-167
1643464119259,18304.6694925,-150
1643464119259,18304.6694954,-153
1643464119259,18304.6694982,-141
1643464119259,18304.669501,-110
1643464119259,18305.1694776,-113
1643464119259,18305.1694915,-134
1643464119259,18305.169495,-113
1643464119280,18305.1694992,-96
1643464119280,18305.1695023,-120
1643464119280,18305.1695053,-134
1643464119280,18305.1695082,-120
1643464119280,18305.1695111,-106
1643464119280,18305.1695139,-87
1643464119280,18305.1695168,-68
1643464119280,18305.1695197,-77
1643464119280,18305.1695241,-106
1643464119280,18305.1695271,-96
1643464119304,18305.1695306,-42
1643464119304,18305.1695336,-4
1643464119304,18305.1695375,-9
1643464119304,18305.1695404,-35
1643464119304,18305.1695433,-70
1643464119304,18305.1695462,-110
1643464119304,18305.1695491,-113
1643464119304,18305.1695522,-91
1643464119304,18305.1695573,-89
1643464119304,18305.1695604,-89
1643464119326,18305.1695634,-61
1643464119326,18305.1696132,-42
1643464119326,18305.169619,-73
1643464119326,18305.1696231,-91
1643464119326,18305.1696282,-56
1643464119326,18305.1696312,-30
1643464119326,18305.1696343,-16
1643464119326,18305.1696393,16
1643464119326,18305.1696425,-4
1643464119326,18305.1696472,-73
1643464119347,18305.1696504,-65
1643464119347,18305.1696555,-14
1643464119347,18305.1696586,7
1643464119347,18305.1696618,-7
1643464119347,18305.169667,-47
1643464119347,18305.1696702,-49
1643464119347,18305.169675,-4
1643464119347,18305.1696781,2
1643464119347,18305.1696823,-28
1643464119347,18305.1696854,-28
1643464119370,18305.1696884,63
1643464119370,18305.1696916,407
1643464119370,18305.1696947,1102
1643464119370,18305.1696997,1764
1643464119370,18305.1697027,1611
1643464119370,18305.169706,579
1643464119370,18305.1697091,-155
1643464119370,18305.1697147,-110
1643464119370,18305.1697181,-65
1643464119370,18305.1697211,-190
1643464119392,18305.1697263,-141
1643464119392,18305.1697292,-63
1643464119392,18305.1697323,-94
1643464119392,18305.1697371,-106
1643464119972,18305.1697407,-103
1643464119972,18305.1697438,-101
1643464119972,18305.1697467,-35
1643464119972,18305.1697499,-11
1643464119972,18305.1697528,-63
1643464119972,18305.1697557,-42
1643464119972,18305.1697585,37
1643464119972,18305.1697614,58
1643464119972,18305.1697643,23
1643464119972,18305.1697673,32
1643464119994,18305.1697702,101
1643464119994,18305.1697734,160
1643464119994,18305.1697763,162
1643464119994,18305.1697792,141
1643464119994,18305.1697821,176
1643464119994,18305.1697856,235
1643464119994,18305.9153036,228
1643464119994,18305.9153157,190
1643464119994,18305.9153212,157
1643464119994,18305.9153261,65
1643464120015,18305.9153309,-75
1643464120015,18305.9153355,-157
1643464120015,18305.9153384,-141
1643464120015,18305.9153414,-134
1643464120015,18305.9153461,-195
1643464120015,18305.915349,-219
1643464120015,18305.915352,-186
1643464120015,18305.9153567,-183
1643464120015,18305.9153596,-221
1643464120015,18305.9153626,-245
1643464120037,18305.9153656,-176
1643464120037,18305.9153697,-110
1643464120037,18305.9153727,-207
1643464120037,18305.9153765,-296
1643464120037,18305.9153795,-230
1643464120037,18305.9153833,-167
1643464120037,18305.9153863,-169
1643464120037,18305.9153902,-162
1643464120037,18305.9153932,-160
1643464120037,18305.9153979,-183
1643464120061,18305.9154007,-167
1643464120061,18305.9154037,-131
1643464120061,18305.9154088,-136
1643464120061,18305.9154118,-139
1643464120061,18305.9154157,-122
1643464120061,18305.9154187,-110
1643464120061,18305.9154236,-108
1643464120061,18305.9154274,-115
1643464120061,18305.9154305,-122
1643464120061,18305.9154336,-98
1643464120082,18305.9154382,-65
1643464120082,18305.9154421,-108
1643464120082,18305.9154467,-164
1643464120082,18305.9154505,-117
1643464120082,18305.9154544,-42
1643464120082,18305.9154574,-44
1643464120082,18305.915462,-61
1643464120082,18305.9154685,-35
1643464120082,18305.9154731,-25
1643464120082,18305.9154776,-47
1643464120108,18305.9154822,-58
1643464120108,18305.9154851,-47
1643464120108,18305.9154881,-21
1643464120108,18305.915492,-9
1643464120108,18305.9154949,-11
1643464120108,18305.9154988,-18
1643464120108,18305.9155018,-32
1643464120108,18305.9155063,-58
1643464120108,18305.9155107,-77
1643464120108,18305.9155152,-51
1643464120127,18305.9155189,-11
1643464120127,18305.915522,28
1643464120127,18305.9155265,242
1643464120127,18305.9155309,763
1643464120281,18305.9155356,1422
1643464120281,18305.9155386,1646
1643464120281,18305.9155415,930
1643464120281,18305.9155444,-4
1643464120281,18305.9155473,-131
1643464120281,18305.9155501,47
1643464120281,18305.9155529,-87
1643464120281,18305.9155557,-164
1643464120281,18305.9155585,-73
1643464120281,18305.9155613,-63
1643464120304,18305.9155641,-73
1643464120304,18305.9155669,-11
1643464120304,18305.9155697,16
1643464120304,18305.9155725,-9
1643464120304,18305.9155753,28
1643464120304,18306.2200584,82
1643464120304,18306.2200706,37
1643464120304,18306.2200742,-11
1643464120304,18306.2200775,49
1643464120304,18306.2200828,115
1643464120327,18306.2200879,124
1643464120327,18306.2200928,148
1643464120327,18306.220096,186
1643464120327,18306.2200992,197
1643464120327,18306.220104,202
1643464120327,18306.2201086,242
1643464120327,18306.2201134,261
1643464120327,18306.2201166,237
1643464120327,18306.2201215,228
1643464120327,18306.2201245,228
1643464120349,18306.2201277,174
1643464120349,18306.2201324,65
1643464120349,18306.2201374,-11
1643464120349,18306.2201422,-51
1643464120349,18306.2201471,-73
1643464120349,18306.2201519,-70
1643464120349,18306.2201551,-84
1643464120349,18306.2201583,-115
1643464120349,18306.2201632,-108
1643464120349,18306.2201679,-82
1643464120371,18306.2201727,-94
1643464120371,18306.2201758,-115
1643464120371,18306.2201806,-103
1643464120371,18306.2201852,-87
1643464120371,18306.2201904,-96
1643464120371,18306.2201936,-115
1643464120371,18306.2201968,-94
1643464120371,18306.2202017,-32
1643464120371,18306.2202047,-16
1643464120371,18306.2202079,-58
1643464120393,18306.2202128,-56
1643464120393,18306.2202175,-9
1643464120393,18306.2202224,-21
1643464120393,18306.2202271,-49
1643464120393,18306.2202319,-44
1643464120393,18306.2202365,-42
1643464120393,18306.2202412,-44
1643464120393,18306.220246,-58
1643464120393,18306.2202507,-65
1643464120393,18306.220254,-37
1643464120414,18306.2202588,-16
1643464120414,18306.2202633,-51
1643464120414,18306.2202681,-80
1643464120414,18306.2202712,-42
1643464120414,18306.2202759,-25
1643464120414,18306.2202791,-61
1643464120414,18306.2202839,-28
1643464120414,18306.2202869,21
1643464120414,18306.2202901,2
1643464120414,18306.2202948,4
1643464120438,18306.2202997,25
1643464120438,18306.2203046,2
1643464120438,18306.2203078,-11
1643464120438,18306.2203126,0
1643464120882,18306.2203162,14
1643464120882,18306.2203194,7
1643464120882,18306.2203224,4
1643464120882,18306.2203254,18
1643464120882,18306.2203284,-16
1643464120882,18306.2203314,-42
1643464120882,18306.2203344,-4
1643464120882,18306.2203374,-2
1643464120882,18306.2203405,25
1643464120882,18306.2203435,296
1643464120905,18306.2203465,841
1643464120905,18306.2203495,1441
1643464120905,18306.2203532,1536
1643464120905,18306.2203582,765
1643464120905,18306.8208076,-37
1643464120905,18306.8208196,-75
1643464120905,18306.8208232,65
1643464120905,18306.8208264,-56
1643464120905,18306.8208307,-94
1643464120905,18306.8208337,-35
1643464120926,18306.8208386,-73
1643464120926,18306.8208415,-117
1643464120926,18306.8208446,-91
1643464120926,18306.8208492,-63
1643464120926,18306.8208521,-42
1643464120926,18306.8208551,-21
1643464120926,18306.82086,-14
1643464120926,18306.8208639,-28
1643464120926,18306.8208671,-37
1643464120926,18306.82087,-7
1643464120948,18306.820873,44
1643464120948,18306.8208779,56
1643464120948,18306.8208817,65
1643464120948,18306.8208857,98
1643464120948,18306.8208888,124
1643464120948,18306.8208936,143
1643464120948,18306.8208984,143
1643464120948,18306.8209014,146
1643464120948,18306.8209062,150
1643464120948,18306.820909,108
1643464120971,18306.820912,82
1643464120971,18306.8209161,82
1643464120971,18306.8209191,30
1643464120971,18306.8209232,-54
1643464120971,18306.8209261,-89
1643464120971,18306.8209292,-91
1643464120971,18306.820933,-139
1643464120971,18306.820936,-190
1643464120971,18306.820939,-179
1643464120971,18306.820943,-143
1643464120993,18306.820946,-136
1643464120993,18306.8209489,-131
1643464120993,18306.8209518,-129
1643464120993,18306.8209548,-136
1643464120993,18306.8209577,-129
1643464120993,18306.8209608,-115
1643464120993,18306.8209638,-117
1643464120993,18306.8209677,-129
1643464120993,18306.8209707,-127
1643464120993,18306.8209747,-122
1643464121014,18306.8209777,-136
1643464121014,18306.8209806,-139
1643464121014,18306.8209836,-117
1643464121014,18306.8209865,-110
1643464121014,18306.8209895,-120
1643464121014,18306.8209926,-122
1643464121014,18306.8209956,-117
1643464121014,18306.8209997,-103
1643464121014,18306.8210026,-94
1643464121014,18306.8210056,-96
1643464121037,18306.8210085,-103
1643464121037,18306.8210136,-110
1643464121037,18306.8210165,-103
1643464121037,18306.8210196,-87
1643464121437,18306.8210235,-82
1643464121437,18306.8210264,-84
1643464121437,18306.8210293,-70
1643464121437,18306.821032,-42
1643464121437,18306.8210349,-30
1643464121437,18306.8210377,-21
1643464121437,18306.8210405,-14
1643464121437,18306.8210433,-35
1643464121437,18306.8210461,-51
1643464121437,18306.8210489,-42
1643464121460,18306.8210516,-47
1643464121460,18306.8210544,-56
1643464121460,18306.8210572,-49
1643464121460,18307.3701719,-37
1643464121460,18307.3701854,-40
1643464121460,18307.3701908,-49
1643464121460,18307.3701953,-54
1643464121460,18307.3701986,-54
1643464121460,18307.3702018,-18
1643464121460,18307.3702048,131
1643464121480,18307.3702269,471
1643464121480,18307.3702341,1003
1643464121480,18307.3702378,1347
1643464121480,18307.370241,883
1643464121480,18307.3702441,-2
1643464121480,18307.3702477,-266
1643464121480,18307.3702507,-77
1643464121480,18307.3702536,-124
1643464121480,18307.3702564,-219
1643464121480,18307.3702594,-160
1643464121503,18307.3702623,-141
1643464121503,18307.3702653,-167
1643464121503,18307.3702682,-131
1643464121503,18307.3702711,-101
1643464121503,18307.370274,-101
1643464121503,18307.3702769,-75
1643464121503,18307.3702797,-35
1643464121503,18307.3702826,-23
1643464121503,18307.3702856,-18
1643464121503,18307.3702893,2
1643464121526,18307.3702922,32
1643464121526,18307.3702951,63
1643464121526,18307.3702988,87
1643464121526,18307.3703017,103
1643464121526,18307.3703046,131
1643464121526,18307.3703082,164
1643464121526,18307.3703111,195
1643464121526,18307.3703144,209
1643464121526,18307.3703176,204
1643464121526,18307.3703205,195
1643464121547,18307.3703235,167
1643464121547,18307.3703263,113
1643464121547,18307.3703295,51
1643464121547,18307.3703337,-9
1643464121547,18307.3703395,-70
1643464121547,18307.3703428,-113
1643464121547,18307.370348,-141
1643464121547,18307.3703511,-164
1643464121547,18307.3703561,-174
1643464121547,18307.3703593,-174
1643464121570,18307.3703642,-171
1643464121570,18307.3703676,-157
1643464121570,18307.3703732,-150
1643464121570,18307.3703774,-160
1643464121570,18307.3703822,-146
1643464121570,18307.3703854,-117
1643464121570,18307.3703903,-113
1643464121570,18307.3703935,-120
1643464121570,18307.3703982,-120
1643464121570,18307.3704014,-129
1643464121592,18307.3704063,-136
1643464121592,18307.3704093,-127
1643464121592,18307.3704142,-115
1643464121592,18307.3704174,-117
1643464122037,18307.3704222,-124
1643464122037,18307.3704253,-124
1643464122037,18307.3704284,-124
1643464122037,18307.3704313,-129
1643464122037,18307.3704343,-124
1643464122037,18307.3704372,-115
1643464122037,18307.3704401,-124
1643464122037,18307.3704431,-148
1643464122037,18307.3704461,-160
1643464122037,18307.3704489,-155
1643464122059,18307.3704518,-139
1643464122059,18307.3704548,-127
1643464122059,18307.9700723,-108
1643464122059,18307.9700852,-82
1643464122059,18307.97009,-68
1643464122059,18307.9700952,-68
1643464122059,18307.9700986,-84
1643464122059,18307.9701032,-96
1643464122059,18307.9701063,-89
1643464122059,18307.9701111,-87
1643464122080,18307.9701149,-82
1643464122080,18307.9701196,-80
1643464122080,18307.9701227,-103
