unixTime,lslTime,ECG
1643560233279,9806.7224456,37
1643560233279,9806.7224486,56
1643560233279,9806.7224514,71
1643560233279,9806.7224543,85
1643560233279,9806.7224571,106
1643560233279,9806.7224598,123
1643560233279,9806.7224626,132
1643560233279,9806.7224654,144
1643560233279,9806.7224682,151
1643560233279,9806.7224709,151
1643560233315,9806.7224738,153
1643560233315,9806.7224765,156
1643560233315,9806.7224793,132
1643560233315,9806.7224821,89
1643560233315,9806.7224849,44
1643560233315,9806.7224877,9
1643560233315,9806.7224905,-23
1643560233315,9806.7224935,-49
1643560233315,9806.7224966,-56
1643560233315,9806.7225014,-59
1643560233349,9806.7225044,-73
1643560233349,9806.7225075,-82
1643560233349,9806.7225117,-78
1643560233349,9806.7225147,-75
1643560233349,9806.7225195,-78
1643560233349,9806.7225241,-78
1643560233349,9806.7225288,-73
1643560233349,9806.7225333,-66
1643560233349,9806.722538,-68
1643560233349,9806.7225423,-75
1643560233381,9806.7225475,-66
1643560233381,9806.7225522,-47
1643560233381,9806.722557,-52
1643560233381,9806.7225601,-56
1643560233381,9806.722565,-44
1643560233381,9806.7225695,-40
1643560233381,9806.7225743,-42
1643560233381,9806.7225774,-30
1643560233381,9806.7225821,-26
1643560233381,9806.7225867,-33
1643560233415,9806.7225915,-28
1643560233415,9806.7225946,-21
1643560233415,9806.7225977,-23
1643560233415,9806.7226028,-30
1643560233415,9806.7226058,-30
1643560233415,9806.7226097,-33
1643560233415,9806.7226136,-33
1643560233415,9806.7226166,-26
1643560233415,9806.722622,-26
1643560233415,9806.7226251,-28
1643560233448,9806.72263,-26
1643560233448,9806.7226329,-23
1643560233448,9806.7226373,-28
1643560233448,9806.7226404,-26
1643560233448,9806.7226451,-18
1643560233448,9806.7226492,-23
1643560233448,9806.7226538,-35
1643560233448,9806.7226574,-42
1643560233448,9806.7226621,-49
1643560233448,9806.7226664,-44
1643560233483,9806.722671,-18
1643560233483,9807.3207126,9
1643560233483,9807.3207249,26
1643560233483,9807.3207296,49
1643560233483,9807.3207352,73
1643560233483,9807.3207384,56
1643560233483,9807.3207436,23
1643560233483,9807.3207467,11
1643560233483,9807.3207515,-2
1643560233483,9807.3207547,-16
1643560233515,9807.3207593,-16
1643560233515,9807.3207632,-42
1643560233515,9807.3207679,-68
1643560233515,9807.3207711,-54
1643560233883,9807.3207757,-66
1643560233883,9807.3207787,-130
1643560233883,9807.3207816,-49
1643560233883,9807.3207845,336
1643560233883,9807.3207873,824
1643560233883,9807.3207902,873
1643560233883,9807.3207931,333
1643560233883,9807.320796,-71
1643560233883,9807.3207988,4
1643560233883,9807.3208017,42
1643560233916,9807.3208045,-75
1643560233916,9807.3208073,-111
1643560233916,9807.3208102,-106
1643560233916,9807.320813,-137
1643560233916,9807.3208159,-142
1643560233916,9807.3208187,-123
1643560233916,9807.3208215,-125
1643560233916,9807.3208245,-123
1643560233916,9807.3208294,-106
1643560233916,9807.320834,-99
1643560233950,9807.3208388,-89
1643560233950,9807.3208431,-75
1643560233950,9807.3208478,-82
1643560233950,9807.3208512,-85
1643560233950,9807.3208558,-61
1643560233950,9807.3208589,-44
1643560233950,9807.3208636,-44
1643560233950,9807.3208902,-40
1643560233950,9807.3208934,-26
1643560233950,9807.3208964,-11
1643560233984,9807.3208993,-7
1643560233984,9807.3209024,0
1643560233984,9807.3209054,18
1643560233984,9807.3209083,37
1643560233984,9807.3209113,49
1643560233984,9807.3209143,66
1643560233984,9807.3209179,78
1643560233984,9807.3212323,92
1643560233984,9807.3212395,108
1643560233984,9807.3212446,116
1643560234018,9807.3212479,123
1643560234018,9807.3212526,130
1643560234018,9807.3212557,125
1643560234018,9807.3212609,104
1643560234018,9807.3212641,73
1643560234018,9807.3212692,37
1643560234018,9807.3212725,9
1643560234018,9807.3212775,-11
1643560234018,9807.3212806,-40
1643560234018,9807.3212853,-73
1643560234050,9807.3212884,-80
1643560234050,9807.3212932,-73
1643560234050,9807.3212964,-78
1643560234050,9807.3213004,-78
1643560234050,9807.3213034,-63
1643560234050,9807.3213065,-61
1643560234050,9807.321312,-68
1643560234050,9807.3213151,-66
1643560234050,9807.3213203,-56
1643560234050,9807.3213234,-54
1643560234084,9807.9215098,-52
1643560234084,9807.9215334,-49
1643560234084,9807.9215374,-42
1643560234084,9807.9215423,-37
1643560234084,9807.9215466,-37
1643560234084,9807.9215496,-40
1643560234084,9807.9215525,-37
1643560234084,9807.9215554,-33
1643560234084,9807.9215586,-33
1643560234084,9807.9215847,-37
1643560234117,9807.9215909,-40
1643560234117,9807.9215952,-40
1643560234117,9807.9215999,-40
1643560234117,9807.9216031,-47
1643560234483,9807.9216081,-54
1643560234483,9807.9216111,-61
1643560234483,9807.921614,-75
1643560234483,9807.9216169,-80
1643560234483,9807.9216199,-73
1643560234483,9807.9216228,-68
1643560234483,9807.9216257,-66
1643560234483,9807.9216286,-56
1643560234483,9807.9216315,-54
1643560234483,9807.9216344,-59
1643560234517,9807.9216374,-52
1643560234517,9807.9216402,-37
1643560234517,9807.9216431,-33
1643560234517,9807.9216459,-37
1643560234517,9807.9216491,-44
1643560234517,9807.9216519,-42
1643560234517,9807.9216548,-44
1643560234517,9807.9216579,-56
1643560234517,9807.9216608,-49
1643560234517,9807.9216637,-14
1643560234553,9807.9216666,16
1643560234553,9807.9216695,30
1643560234553,9807.9216724,47
1643560234553,9807.9216752,71
1643560234553,9807.9216781,66
1643560234553,9807.9216809,37
1643560234553,9807.9216838,18
1643560234553,9807.9216889,16
1643560234553,9807.921692,9
1643560234553,9807.9216974,0
1643560234586,9807.9217004,0
1643560234586,9807.9217035,4
1643560234586,9807.9217087,14
1643560234586,9807.9217118,7
1643560234586,9807.9217176,-54
1643560234586,9807.9217212,-11
1643560234586,9807.9217265,350
1643560234586,9807.9217304,873
1643560234586,9807.9217354,975
1643560234586,9807.921739,407
1643560234619,9807.9217445,-92
1643560234619,9807.9217477,-56
1643560234619,9807.9217532,14
1643560234619,9807.9217568,-59
1643560234619,9807.9217626,-54
1643560234619,9807.9217657,-30
1643560234619,9807.9217714,-56
1643560234619,9807.9217772,-59
1643560234619,9807.9217803,-40
1643560234619,9807.9217859,-37
1643560234653,9807.9217899,-33
1643560234653,9807.9217958,-14
1643560234653,9807.9217999,-9
1643560234653,9807.9218059,-14
1643560234653,9807.9218095,-4
1643560234653,9807.9218152,-4
1643560234653,9807.9218192,-4
1643560234653,9807.9218244,4
1643560234653,9807.9218281,11
1643560234653,9808.5161285,21
1643560234691,9808.5161416,30
1643560234691,9808.5161467,37
1643560234691,9808.5161519,49
1643560234691,9808.5161567,71
1643560234691,9808.5161629,85
1643560234691,9808.5161661,97
1643560234691,9808.5161699,116
1643560234691,9808.5161745,132
1643560234691,9808.5161776,146
1643560234691,9808.5161824,163
1643560234727,9808.5161868,175
1643560234727,9808.5161914,191
1643560234727,9808.5161943,201
1643560234727,9808.5161974,189
1643560235024,9808.5162022,184
1643560235024,9808.5162058,194
1643560235024,9808.5162088,184
1643560235024,9808.5162117,153
1643560235024,9808.5162145,108
1643560235024,9808.5162174,54
1643560235024,9808.5162202,18
1643560235024,9808.516223,4
1643560235024,9808.516226,-18
1643560235024,9808.5162289,-40
1643560235060,9808.5162317,-42
1643560235060,9808.5162347,-40
1643560235060,9808.5162375,-44
1643560235060,9808.5162409,-44
1643560235060,9808.5162438,-42
1643560235060,9808.5162467,-37
1643560235060,9808.5162494,-30
1643560235060,9808.5162536,-28
1643560235060,9808.5162568,-30
1643560235060,9808.5162618,-23
1643560235099,9808.5162647,-18
1643560235099,9808.5162676,-18
1643560235099,9808.5162704,-4
1643560235099,9808.5162732,11
1643560235099,9808.516276,7
1643560235099,9808.5162789,0
1643560235099,9808.5162817,9
1643560235099,9808.5162846,23
1643560235099,9808.5162874,33
1643560235099,9808.5162903,37
1643560235139,9808.5162931,42
1643560235139,9808.5162959,40
1643560235139,9808.5162988,30
1643560235139,9808.5163016,18
1643560235139,9808.5163044,16
1643560235139,9808.5163072,30
1643560235139,9808.51631,37
1643560235139,9808.5163128,26
1643560235139,9808.5163157,26
1643560235139,9808.5163192,26
1643560235179,9808.5163221,18
1643560235179,9808.516325,26
1643560235179,9808.5163277,47
1643560235179,9808.5163318,56
1643560235179,9808.5163349,42
1643560235179,9808.5163398,44
1643560235179,9808.516343,52
1643560235179,9808.5163483,30
1643560235179,9808.5163512,7
1643560235179,9808.5163542,21
1643560235217,9808.5163589,49
1643560235217,9808.5163636,78
1643560235217,9808.5163684,99
1643560235217,9808.5163714,123
1643560235217,9808.5163766,156
1643560235217,9808.5163801,149
1643560235217,9808.5163848,99
1643560235217,9808.5163878,73
1643560235217,9809.0685563,78
1643560235217,9809.0685699,71
1643560235257,9809.0685754,63
1643560235257,9809.0685807,63
1643560235257,9809.0685839,54
1643560235257,9809.0685888,30
1643560235257,9809.0685921,-7
1643560235257,9809.068597,-61
1643560235257,9809.0686002,-11
1643560235257,9809.068605,329
1643560235257,9809.0686082,883
1643560235257,9809.0686128,1075
1643560235294,9809.068616,518
1643560235294,9809.0686209,-61
1643560235294,9809.0686257,-66
1643560235294,9809.0686304,-18
1643560235541,9809.0686337,-120
1643560235541,9809.0686368,-85
1643560235541,9809.0686398,-23
1643560235541,9809.0686428,-59
1643560235541,9809.0686462,-63
1643560235541,9809.0686491,-35
1643560235541,9809.0686521,-47
1643560235541,9809.068655,-56
1643560235541,9809.0686579,-35
1643560235541,9809.0686609,-23
1643560235577,9809.0686638,-26
1643560235577,9809.0686668,-18
1643560235577,9809.0686697,-9
1643560235577,9809.0686726,-7
1643560235577,9809.0686756,0
1643560235577,9809.0686785,2
1643560235577,9809.0686815,0
1643560235577,9809.0686845,7
1643560235577,9809.0686879,23
1643560235577,9809.0686909,35
1643560235612,9809.0686938,42
1643560235612,9809.0686968,54
1643560235612,9809.0686997,68
1643560235612,9809.0687028,80
1643560235612,9809.0687058,94
1643560235612,9809.0687087,116
1643560235612,9809.0687117,132
1643560235612,9809.0687147,144
1643560235612,9809.0687177,158
1643560235612,9809.0687207,168
1643560235645,9809.0687236,170
1643560235645,9809.0687265,170
1643560235645,9809.0687295,170
1643560235645,9809.0687325,163
1643560235645,9809.0687361,139
1643560235645,9809.0687391,108
1643560235645,9809.0687421,63
1643560235645,9809.068745,21
1643560235645,9809.0687479,4
1643560235645,9809.0687509,-2
1643560235681,9809.0687539,-28
1643560235681,9809.0687568,-49
1643560235681,9809.0687598,-42
1643560235681,9809.0687627,-37
1643560235681,9809.0687657,-40
1643560235681,9809.0687686,-37
1643560235681,9809.0687716,-40
1643560235681,9809.0687753,-47
1643560235681,9809.0687783,-44
1643560235681,9809.0687816,-40
1643560235714,9809.0687846,-40
1643560235714,9809.0687875,-35
1643560235714,9809.0687909,-28
1643560235714,9809.0687942,-33
1643560235714,9809.0687971,-37
1643560235714,9809.0688001,-33
1643560235714,9809.068803,-33
1643560235714,9809.5720007,-33
1643560235714,9809.5720132,-23
1643560235714,9809.5720168,-18
1643560235749,9809.5720197,-26
1643560235749,9809.5720231,-33
1643560235749,9809.5720261,-26
1643560235749,9809.5720312,-23
1643560235749,9809.5720343,-26
1643560235749,9809.5720374,-18
1643560235749,9809.5720402,-18
1643560235749,9809.572043,-28
1643560235749,9809.572047,-33
1643560235749,9809.57205,-28
1643560235785,9809.5720552,-23
1643560235785,9809.5720582,-23
1643560235785,9809.5720631,-28
1643560235785,9809.5720661,-30
1643560236107,9809.5720691,-35
1643560236107,9809.572072,-33
1643560236107,9809.5720748,-21
1643560236107,9809.5720776,-18
1643560236107,9809.5720804,-30
1643560236107,9809.5720831,-44
1643560236107,9809.5720859,-61
1643560236107,9809.5720887,-80
1643560236107,9809.5720914,-73
1643560236107,9809.5720942,-35
1643560236147,9809.5720971,2
1643560236147,9809.5720999,23
1643560236147,9809.5721027,47
1643560236147,9809.5721056,68
1643560236147,9809.5721084,49
1643560236147,9809.5721112,14
1643560236147,9809.572114,2
1643560236147,9809.5721188,-2
1643560236147,9809.5721219,-11
1643560236147,9809.5721258,-9
1643560236181,9809.5721298,-2
1643560236181,9809.572133,-2
1643560236181,9809.5721376,-4
1643560236181,9809.5721422,-33
1643560236181,9809.5721461,-82
1643560236181,9809.5721491,11
1643560236181,9809.5721538,419
1643560236181,9809.5721566,949
1643560236181,9809.5721603,999
1643560236181,9809.5721654,407
1643560236217,9809.5721682,-7
1643560236217,9809.5721712,92
1643560236217,9809.5721759,108
1643560236217,9809.5721803,-44
1643560236217,9809.5721851,-75
1643560236217,9809.572188,-59
1643560236217,9809.572191,-94
1643560236217,9809.5722252,-99
1643560236217,9809.5722312,-78
1643560236217,9809.5722342,-82
1643560236252,9809.5722393,-85
1643560236252,9809.5722423,-71
1643560236252,9809.572246,-63
1643560236252,9809.5722507,-61
1643560236252,9809.5722539,-52
1643560236252,9809.5722587,-44
1643560236252,9809.5722632,-47
1643560236252,9809.5722679,-40
1643560236252,9809.5722708,-26
1643560236252,9809.5722743,-18
1643560236291,9809.5722789,-16
1643560236291,9809.5722834,-2
1643560236291,9809.5722881,11
1643560236291,9809.5722926,16
1643560236291,9809.5722974,26
1643560236291,9809.5723019,44
1643560236291,9810.1228714,61
1643560236291,9810.122888,78
1643560236291,9810.1228918,94
1643560236291,9810.1228979,108
1643560236327,9810.1229017,123
1643560236327,9810.1229077,132
1643560236327,9810.1229109,139
1643560236327,9810.1229147,149
1643560236327,9810.1229195,156
1643560236327,9810.1229248,153
1643560236327,9810.1229282,134
1643560236327,9810.1229332,116
1643560236327,9810.1229391,87
1643560236327,9810.1229421,52
1643560236364,9810.1229492,14
1643560236364,9810.1229551,-21
1643560236364,9810.1229589,-59
1643560236364,9810.1229625,-78
1643560236651,9810.1229683,-75
1643560236651,9810.1229719,-73
1643560236651,9810.1229758,-68
1643560236651,9810.1229792,-63
1643560236651,9810.1229826,-61
1643560236651,9810.1229855,-59
1643560236651,9810.1229893,-61
1643560236651,9810.1229926,-54
1643560236651,9810.122996,-47
1643560236651,9810.1229993,-44
1643560236686,9810.1230023,-47
1643560236686,9810.1230061,-49
1643560236686,9810.1230091,-47
1643560236686,9810.1230135,-42
1643560236686,9810.1230165,-40
1643560236686,9810.1230196,-42
1643560236686,9810.1230226,-44
1643560236686,9810.1230255,-33
1643560236686,9810.1230284,-23
1643560236686,9810.1230314,-26
1643560236726,9810.1230343,-30
1643560236726,9810.1230373,-23
1643560236726,9810.1230402,-18
1643560236726,9810.1230431,-21
1643560236726,9810.1230474,-23
1643560236726,9810.1230516,-16
1643560236726,9810.1230568,-14
1643560236726,9810.1230602,-21
1643560236726,9810.1230651,-18
1643560236726,9810.1230683,-14
1643560236764,9810.1230731,-14
1643560236764,9810.1230771,-14
1643560236764,9810.1230804,-16
1643560236764,9810.123085,-16
1643560236764,9810.1230882,-11
1643560236764,9810.1230931,-4
1643560236764,9810.1230979,-9
1643560236764,9810.1231028,-18
1643560236764,9810.1231058,-26
1643560236764,9810.1231089,-33
1643560236797,9810.123114,-42
1643560236797,9810.1231171,-44
1643560236797,9810.123122,-23
1643560236797,9810.1231259,14
1643560236797,9810.1231309,37
1643560236797,9810.1231342,52
1643560236797,9810.1231389,80
1643560236797,9810.1231436,85
1643560236797,9810.1231493,42
1643560236797,9810.1231525,14
1643560236829,9810.1231573,14
1643560236829,9810.1231604,2
1643560236829,9810.1231652,-4
1643560236829,9810.123169,9
1643560236829,9810.1231737,14
1643560236829,9810.6718837,4
1643560236829,9810.6718955,-9
1643560236829,9810.671899,-49
1643560236829,9810.6719021,-59
1643560236829,9810.6719061,168
1643560236866,9810.6719092,677
1643560236866,9810.6719145,1023
1643560236866,9810.6719174,686
1643560236866,9810.6719204,85
1643560236866,9810.6719254,-18
1643560236866,9810.6719301,97
1643560236866,9810.671935,16
1643560236866,9810.671938,-61
1643560236866,9810.6719429,-63
1643560236866,9810.671946,-111
1643560236905,9810.6719508,-146
1643560236905,9810.6719556,-118
1643560236905,9810.6719604,-99
1643560236905,9810.671965,-108
1643560237351,9810.671969,-101
1643560237351,9810.671972,-97
1643560237351,9810.6719748,-97
1643560237351,9810.6719777,-87
1643560237351,9810.6719807,-75
1643560237351,9810.6719835,-59
1643560237351,9810.6719863,-49
1643560237351,9810.6719891,-47
1643560237351,9810.6719919,-40
1643560237351,9810.6719947,-33
1643560237385,9810.6719976,-26
1643560237385,9810.6720003,-7
1643560237385,9810.6720032,9
1643560237385,9810.6720061,21
1643560237385,9810.672009,35
1643560237385,9810.6720118,37
1643560237385,9810.6720146,37
1643560237385,9810.6720174,59
1643560237385,9810.6720202,92
1643560237385,9810.672023,118
1643560237418,9810.6720258,125
1643560237418,9810.6720286,125
1643560237418,9810.6720313,130
1643560237418,9810.6720358,139
1643560237418,9810.6720388,142
1643560237418,9810.6720438,137
1643560237418,9810.6720469,142
1643560237418,9810.6720516,127
1643560237418,9810.6720545,61
1643560237418,9810.6720575,-11
1643560237451,9810.6720624,-26
1643560237451,9810.6720654,-18
1643560237451,9810.6720703,-44
1643560237451,9810.6720747,-66
1643560237451,9810.6720794,-63
1643560237451,9810.6720825,-49
1643560237451,9810.6720855,-44
1643560237451,9810.6720904,-56
1643560237451,9810.6720941,-63
1643560237451,9810.6720989,-49
1643560237484,9810.6721027,-35
1643560237484,9810.6721074,-35
1643560237484,9810.6721103,-37
1643560237484,9810.6721134,-40
1643560237484,9810.6721181,-42
1643560237484,9810.6721219,-37
1643560237484,9810.6721266,-23
1643560237484,9810.6721304,-21
1643560237484,9810.6721355,-28
1643560237484,9810.6721388,-26
1643560237520,9810.6721437,-16
1643560237520,9810.6721481,-11
1643560237520,9810.6721527,-16
1643560237520,9810.6721566,-28
1643560237520,9811.3674356,-28
1643560237520,9811.3674478,-9
1643560237520,9811.3674516,-4
1643560237520,9811.3674569,-4
1643560237520,9811.3674603,2
1643560237520,9811.3674652,-11
1643560237556,9811.3674683,-28
1643560237556,9811.3674716,-14
1643560237556,9811.3674763,-7
1643560237556,9811.3674807,-4
1643560237556,9811.3674865,4
1643560237556,9811.3674898,4
1643560237556,9811.3674947,-14
1643560237556,9811.367498,-40
1643560237556,9811.3675029,-40
1643560237556,9811.3675069,-18
1643560237592,9811.3675117,-40
1643560237592,9811.3675148,-82
1643560237592,9811.3675189,-52
1643560237592,9811.3675221,11
1643560237807,9811.367527,14
1643560237807,9811.3675302,21
1643560237807,9811.3675332,89
1643560237807,9811.3675362,104
1643560237807,9811.3675395,33
1643560237807,9811.3675427,14
1643560237807,9811.3675456,30
1643560237807,9811.3675486,4
1643560237807,9811.3675515,-11
1643560237807,9811.3675545,-4
1643560237840,9811.3675575,-4
1643560237840,9811.3675604,7
1643560237840,9811.3675634,4
1643560237840,9811.3675664,-61
1643560237840,9811.3675694,-40
1643560237840,9811.3675724,307
1643560237840,9811.3675754,892
1643560237840,9811.3675785,1105
1643560237840,9811.3675836,523
1643560237840,9811.3675876,-92
1643560237880,9811.3675924,-80
1643560237880,9811.3675955,-2
1643560237880,9811.3676008,-111
1643560237880,9811.3676041,-111
1643560237880,9811.3676089,-61
1643560237880,9811.3676122,-82
1643560237880,9811.367617,-89
1643560237880,9811.3676201,-59
1643560237880,9811.3676233,-44
1643560237880,9811.3676282,-54
1643560237913,9811.3676331,-63
1643560237913,9811.3676381,-49
1643560237913,9811.3676414,-23
1643560237913,9811.3676463,-16
1643560237913,9811.3676502,-28
1643560237913,9811.3676552,-35
1643560237913,9811.3676585,-26
1643560237913,9811.3676634,2
1643560237913,9811.3676667,21
1643560237913,9811.3676716,9
1643560237949,9811.3676749,4
1643560237949,9811.3676796,33
1643560237949,9811.3676829,59
1643560237949,9811.3676878,59
1643560237949,9811.3676908,59
1643560237949,9811.3676941,89
1643560237949,9811.367699,116
1643560237949,9811.3677037,120
1643560237949,9811.3677086,144
1643560237949,9811.3677118,165
1643560237985,9811.3677167,161
1643560237985,9811.3677206,165
1643560237985,9811.3677254,179
1643560237985,9811.820967,172
1643560237985,9811.8209801,168
1643560237985,9811.8209842,168
1643560237985,9811.8209893,156
1643560237985,9811.8209923,118
1643560237985,9811.8209954,73
1643560237985,9811.8210001,40
1643560238024,9811.8210047,16
1643560238024,9811.8210096,-21
1643560238024,9811.8210134,-40
1643560238024,9811.8210181,-40
1643560238024,9811.8210209,-44
1643560238024,9811.821024,-42
1643560238024,9811.8210286,-35
1643560238024,9811.8210331,-33
1643560238024,9811.8210381,-28
1643560238024,9811.821041,-26
1643560238060,9811.8210457,-16
1643560238060,9811.8210487,-16
1643560238060,9811.8210534,-40
1643560238060,9811.8210579,-49
1643560238396,9811.8210625,-30
1643560238396,9811.8210654,-23
1643560238396,9811.8210683,-35
1643560238396,9811.8210711,-44
1643560238396,9811.821074,-40
1643560238396,9811.8210768,-30
1643560238396,9811.8210796,-40
1643560238396,9811.8210824,-52
1643560238396,9811.8210852,-30
1643560238396,9811.821088,-18
1643560238428,9811.8210907,-49
1643560238428,9811.8210938,-80
1643560238428,9811.8210966,-66
1643560238428,9811.8210994,-52
1643560238428,9811.8211021,-61
1643560238428,9811.8211049,-61
1643560238428,9811.8211077,-47
1643560238428,9811.8211114,-40
1643560238428,9811.8211163,-42
1643560238428,9811.821121,-47
1643560238465,9811.821126,-52
1643560238465,9811.8211291,-30
1643560238465,9811.8211339,-26
1643560238465,9811.821137,-63
1643560238465,9811.8211418,-80
1643560238465,9811.8211449,-63
1643560238465,9811.8211488,-66
1643560238465,9811.8211519,-66
1643560238465,9811.8211566,-33
1643560238465,9811.8211613,11
1643560238499,9811.8211659,35
1643560238499,9811.8211697,56
1643560238499,9811.8211744,66
1643560238499,9811.8211773,33
1643560238499,9811.8211803,-2
1643560238499,9811.8211843,-4
1643560238499,9811.8211874,-7
1643560238499,9811.821192,-18
1643560238499,9811.8211949,-16
1643560238499,9811.821198,-4
1643560238536,9811.8212027,0
1643560238536,9811.8212057,-16
1643560238536,9811.8212087,-80
1643560238536,9811.8212135,-118
1643560238536,9811.821218,97
1643560238536,9811.8212226,625
1643560238536,9811.8212272,1101
1643560238536,9811.8212318,911
1643560238536,9811.8212348,227
1643560238536,9811.8212396,-35
1643560238633,9811.8212433,108
1643560238633,9811.821248,56
1643560238633,9812.4211491,-75
1643560238633,9812.4211596,-87
1643560238633,9812.4211642,-108
1643560238633,9812.4211676,-134
1643560238633,9812.4211722,-106
1643560238633,9812.4211754,-99
1643560238633,9812.4211785,-106
1643560238633,9812.4211816,-94
1643560238659,9812.4211846,-87
1643560238659,9812.4211877,-97
1643560238659,9812.4211907,-99
1643560238659,9812.421194,-73
1643560238659,9812.4212003,-54
1643560238659,9812.4212036,-63
1643560238659,9812.4212089,-63
1643560238659,9812.4212121,-54
1643560238659,9812.4212172,-68
1643560238659,9812.4212205,-73
1643560238685,9812.4212256,-42
1643560238685,9812.4212288,-23
1643560238685,9812.421232,-23
1643560238685,9812.4212371,-11
1643560238930,9812.4212403,-2
1643560238930,9812.4212434,7
1643560238930,9812.4212463,35
1643560238930,9812.4212494,47
1643560238930,9812.4212523,49
1643560238930,9812.4212553,68
1643560238930,9812.4212588,78
1643560238930,9812.4212617,82
1643560238930,9812.4212871,104
1643560238930,9812.4212911,108
1643560238971,9812.4212941,97
1643560238971,9812.4212971,87
1643560238971,9812.4213001,71
1643560238971,9812.4213031,42
1643560238971,9812.4213063,16
1643560238971,9812.4213123,-16
1643560238971,9812.4213156,-44
1643560238971,9812.4213206,-47
1643560238971,9812.4213238,-49
1643560238971,9812.4213289,-68
1643560239006,9812.4213322,-68
1643560239006,9812.4213371,-56
1643560239006,9812.4213414,-54
1643560239006,9812.4213463,-52
1643560239006,9812.4213496,-47
1643560239006,9812.4213545,-44
1643560239006,9812.4213583,-40
1643560239006,9812.4213634,-40
1643560239006,9812.4213671,-40
1643560239006,9812.4213737,-35
1643560239042,9812.421377,-33
1643560239042,9812.4213821,-26
1643560239042,9812.4213853,-21
1643560239042,9812.4213903,-26
1643560239042,9812.4213936,-26
1643560239042,9812.4213985,-23
1643560239042,9812.4214028,-28
1643560239042,9812.4214086,-33
1643560239042,9812.4214123,-30
1643560239042,9812.4214173,-18
1643560239083,9812.4214214,-16
1643560239083,9812.4214264,-23
1643560239083,9812.4214297,-26
1643560239083,9812.4214347,-23
1643560239083,9812.4214379,-21
1643560239083,9812.4214428,-16
1643560239083,9812.4214462,-18
1643560239083,9812.4214512,-16
1643560239083,9812.4214552,-7
1643560239083,9812.4214606,-4
1643560239120,9812.4214641,-7
1643560239120,9812.9687069,-14
1643560239120,9812.9687188,-23
1643560239120,9812.9687223,-26
1643560239120,9812.9687254,-33
1643560239120,9812.9687289,-44
1643560239120,9812.9687337,-47
1643560239120,9812.9687379,-21
1643560239120,9812.9687412,16
1643560239120,9812.9687453,26
1643560239160,9812.9687484,40
1643560239160,9812.9687514,85
1643560239160,9812.9687543,89
1643560239160,9812.9687572,42
1643560239160,9812.9687601,16
1643560239160,9812.968763,9
1643560239160,9812.9687659,-4
1643560239160,9812.9687697,-7
1643560239160,9812.9687741,0
1643560239160,9812.9687771,-7
1643560239200,9812.96878,-14
1643560239200,9812.9687829,-21
1643560239200,9812.9687857,-85
1643560239200,9812.9687888,-113
1643560239501,9812.9687934,149
1643560239501,9812.9687968,717
1643560239501,9812.9687996,1077
1643560239501,9812.9688025,698
1643560239501,9812.9688055,66
1643560239501,9812.9688085,-18
1643560239501,9812.9688113,118
1643560239501,9812.9688142,9
1643560239501,9812.9688171,-99
1643560239501,9812.96882,-92
1643560239537,9812.9688228,-111
1643560239537,9812.9688257,-137
1643560239537,9812.9688286,-116
1643560239537,9812.9688315,-94
1643560239537,9812.9688344,-92
1643560239537,9812.9688385,-82
1643560239537,9812.9688414,-71
1643560239537,9812.9688443,-71
1643560239537,9812.9688472,-61
1643560239537,9812.9688501,-49
1643560239576,9812.968853,-40
1643560239576,9812.9688559,-28
1643560239576,9812.9688588,-26
1643560239576,9812.9688617,-28
1643560239576,9812.9688645,-11
1643560239576,9812.9688674,-2
1643560239576,9812.9688703,0
1643560239576,9812.9688732,21
1643560239576,9812.9688762,40
1643560239576,9812.9688791,52
1643560239614,9812.968882,66
1643560239614,9812.968885,78
1643560239614,9812.9688879,89
1643560239614,9812.9688943,106
1643560239614,9812.9689007,123
1643560239614,9812.9689039,130
1643560239614,9812.9689081,142
1643560239614,9812.968911,153
1643560239614,9812.968914,153
1643560239614,9812.968917,144
1643560239654,9812.96892,144
1643560239654,9812.9689229,130
1643560239654,9812.9689258,101
1643560239654,9812.9689289,75
1643560239654,9812.9689318,47
1643560239654,9812.9689348,16
1643560239654,9812.9689377,-2
1643560239654,9812.9689416,-18
1643560239654,9812.9689445,-26
1643560239654,9812.9689475,-16
1643560239691,9813.5203975,-14
1643560239691,9813.5204147,-18
1643560239691,9813.5204185,-11
1643560239691,9813.5204238,-4
1643560239691,9813.5204271,-11
1643560239691,9813.5204306,-14
1643560239691,9813.5204355,-7
1643560239691,9813.5204388,-21
1643560239691,9813.5204437,-33
1643560239691,9813.5204471,-18
1643560239728,9813.520452,-4
1643560239728,9813.5204556,-11
1643560239728,9813.5204607,-23
1643560239728,9813.5204639,-26
1643560239728,9813.5204689,-28
1643560239728,9813.5204721,-23
1643560239728,9813.520477,-14
1643560239728,9813.5204802,-14
1643560239728,9813.5204858,-21
1643560239728,9813.5204896,-18
1643560239766,9813.5204959,-18
1643560239766,9813.5204996,-23
1643560239766,9813.5205046,-30
1643560239766,9813.5205087,-30
1643560240106,9813.5205137,-21
1643560240106,9813.5205169,-9
1643560240106,9813.5205199,-18
1643560240106,9813.5205231,-23
1643560240106,9813.5205265,-7
1643560240106,9813.5205296,0
1643560240106,9813.5205327,-9
1643560240106,9813.5205357,-7
1643560240106,9813.5205386,-2
1643560240106,9813.5205416,-14
1643560240147,9813.5205446,-23
1643560240147,9813.5205476,-26
1643560240147,9813.5205505,-26
1643560240147,9813.5205534,-4
1643560240147,9813.5205563,30
1643560240147,9813.5205595,52
1643560240147,9813.5205626,78
1643560240147,9813.5205681,116
1643560240147,9813.5205716,113
1643560240147,9813.5205765,73
1643560240184,9813.5205797,54
1643560240184,9813.520584,42
1643560240184,9813.5205871,26
1643560240184,9813.5205944,26
1643560240184,9813.5205979,30
1643560240184,9813.5206028,30
1643560240184,9813.5206058,33
1643560240184,9813.520609,14
1643560240184,9813.5206122,-44
1643560240184,9813.5206152,35
1643560240225,9813.5206182,461
1643560240225,9813.5206213,1049
1643560240225,9813.5206243,1120
1643560240225,9813.5206274,390
1643560240225,9813.5206305,-191
1643560240225,9813.5206336,-80
1643560240225,9813.5206368,0
1643560240225,9813.5206398,-123
1643560240225,9813.5206427,-78
1643560240225,9813.5206456,-7
1643560240262,9813.5206487,-54
1643560240262,9813.5206525,-68
1643560240262,9813.5206555,-30
1643560240262,9813.5206585,-26
1643560240262,9813.5206615,-33
1643560240262,9813.5206645,-21
1643560240262,9813.5206675,-16
1643560240262,9813.5206703,-11
1643560240262,9813.5206732,-2
1643560240262,9814.1185313,2
1643560240306,9814.1185435,0
1643560240306,9814.1185487,11
1643560240306,9814.1185539,18
1643560240306,9814.1185571,18
1643560240306,9814.1185619,26
1643560240306,9814.1185656,35
1643560240306,9814.1185696,47
1643560240306,9814.1185727,61
1643560240306,9814.1185775,73
1643560240306,9814.1185806,87
1643560240348,9814.1185837,99
1643560240348,9814.1185885,104
1643560240348,9814.118593,113
1643560240348,9814.1185979,130
1643560240348,9814.1186011,144
1643560240348,9814.118606,153
1643560240348,9814.118609,158
1643560240348,9814.1186138,149
1643560240348,9814.1186185,134
1643560240348,9814.1186232,132
1643560240382,9814.1186356,132
1643560240382,9814.1186407,108
1643560240382,9814.1186438,75
1643560240382,9814.1186487,42
1643560240530,9814.1186533,9
1643560240530,9814.1186563,-18
1643560240530,9814.1186592,-33
1643560240530,9814.118662,-47
1643560240530,9814.1186649,-54
1643560240530,9814.1186677,-54
1643560240530,9814.1186705,-56
1643560240530,9814.1186732,-56
1643560240530,9814.118676,-49
1643560240530,9814.1186788,-44
1643560240569,9814.1186816,-47
1643560240569,9814.1187079,-44
1643560240569,9814.1187307,-37
1643560240569,9814.1187359,-28
1643560240569,9814.118739,-23
1643560240569,9814.118742,-18
1643560240569,9814.1187452,-14
1643560240569,9814.1187503,-4
1643560240569,9814.1187536,2
1643560240569,9814.1187586,2
1643560240603,9814.1187618,2
1643560240603,9814.1187666,0
1643560240603,9814.1187698,-4
1643560240603,9814.1187746,0
1643560240603,9814.1187778,7
1643560240603,9814.1187826,7
1643560240603,9814.1187858,0
1643560240603,9814.1187906,-7
1643560240603,9814.1187937,-7
1643560240603,9814.1187983,-2
1643560240640,9814.1188012,-2
1643560240640,9814.1188045,-4
1643560240640,9814.1188091,-7
1643560240640,9814.1188141,-7
1643560240640,9814.118819,-7
1643560240640,9814.1188222,-11
1643560240640,9814.1188269,-16
1643560240640,9814.1188316,-26
1643560240640,9814.1188362,-42
1643560240640,9814.1188408,-52
1643560240679,9814.1188455,-28
1643560240679,9814.11885,9
1643560240679,9814.1188547,33
1643560240679,9814.1188578,52
1643560240679,9814.1188617,80
1643560240679,9814.1188648,80
1643560240679,9814.1188695,42
1643560240679,9814.1188724,14
1643560240679,9814.5717816,9
1643560240679,9814.5717934,-2
1643560240718,9814.5717971,-11
1643560240718,9814.5718003,-2
1643560240718,9814.5718497,-4
1643560240718,9814.5718577,-16
1643560240718,9814.5718615,-28
1643560240718,9814.5718667,-73
1643560240718,9814.5718702,-66
1643560240718,9814.5718754,222
1643560240718,9814.5718788,776
1643560240718,9814.571884,1068
1643560240758,9814.5718874,615
1643560240758,9814.5719017,4
1643560240758,9814.5719072,-33
1643560240758,9814.5719106,80
1643560240758,9814.5719158,-44
1643560240758,9814.571946,-120
1643560240758,9814.5719621,-87
1643560240758,9814.5719691,-106
1643560240758,9814.571976,-132
1643560240758,9814.5719805,-106
1643560240796,9814.5719856,-94
1643560240796,9814.571989,-111
1643560240796,9814.5719941,-108
1643560240796,9814.5719975,-92
1643560241103,9814.5720026,-87
1643560241103,9814.572006,-78
1643560241103,9814.572009,-66
1643560241103,9814.5720122,-59
1643560241103,9814.5720153,-54
1643560241103,9814.5720184,-47
1643560241103,9814.5720215,-37
1643560241103,9814.5720246,-26
1643560241103,9814.5720277,-14
1643560241103,9814.5720309,2
1643560241130,9814.572034,14
1643560241130,9814.5720376,18
1643560241130,9814.5720407,33
1643560241130,9814.5720438,52
1643560241130,9814.572047,68
1643560241130,9814.5720502,82
1643560241130,9814.5720533,97
1643560241130,9814.5720565,108
1643560241130,9814.5720596,120
1643560241130,9814.5720629,130
1643560241158,9814.5720661,139
1643560241158,9814.5720692,144
1643560241158,9814.5720723,146
1643560241158,9814.5720755,139
1643560241158,9814.5720786,120
1643560241158,9814.5720817,89
1643560241158,9814.5720848,59
1643560241158,9814.572088,33
1643560241158,9814.5720911,4
1643560241158,9814.5720942,-16
1643560241184,9814.5720976,-26
1643560241184,9814.5721008,-30
1643560241184,9814.5721044,-28
1643560241184,9814.5721086,-28
1643560241184,9814.5721118,-30
1643560241184,9814.572115,-37
1643560241184,9814.5721181,-42
1643560241184,9814.5721212,-40
1643560241184,9814.5721255,-33
1643560241184,9814.5721287,-23
1643560241220,9814.5721321,-18
1643560241220,9814.5721356,-23
1643560241220,9814.5721387,-18
1643560241220,9814.5721421,-14
1643560241220,9814.5721452,-16
1643560241220,9814.5721483,-14
1643560241220,9814.5721514,-7
1643560241220,9815.1225264,-2
1643560241220,9815.122541,2
1643560241220,9815.1225451,4
1643560241258,9815.1225507,4
1643560241258,9815.1225541,7
1643560241258,9815.1225592,2
1643560241258,9815.1225626,0
1643560241258,9815.1225677,7
1643560241258,9815.1225716,4
1643560241258,9815.1225766,-23
1643560241258,9815.1225798,-44
1643560241258,9815.1225847,-37
1643560241258,9815.122588,-37
1643560241303,9815.1225935,-42
1643560241303,9815.1225969,-33
1643560241303,9815.1226019,-28
1643560241303,9815.1226053,-33
1643560241303,9815.1226109,-30
1643560241303,9815.1226142,-33
1643560241303,9815.1226194,-35
1643560241303,9815.1226227,-42
1643560241303,9815.122628,-59
1643560241303,9815.1226314,-66
1643560241347,9815.1226364,-35
1643560241347,9815.1226398,7
1643560241347,9815.1226449,28
1643560241347,9815.1226483,49
1643560241664,9815.1226532,73
1643560241664,9815.1226565,71
1643560241664,9815.1226595,33
1643560241664,9815.1226625,11
1643560241664,9815.1226655,7
1643560241664,9815.1226684,-7
1643560241664,9815.1226714,-7
1643560241664,9815.1226744,-4
1643560241664,9815.1226774,-9
1643560241664,9815.1226804,-9
1643560241703,9815.1226834,-11
1643560241703,9815.1226864,-61
1643560241703,9815.1226894,-52
1643560241703,9815.1226928,239
1643560241703,9815.1226961,767
1643560241703,9815.1227014,1025
1643560241703,9815.1227046,594
1643560241703,9815.1227097,28
1643560241703,9815.122713,9
1643560241703,9815.1227179,123
1643560241740,9815.122721,-2
1643560241740,9815.1227242,-89
1643560241740,9815.1227293,-68
1643560241740,9815.1227325,-75
1643560241740,9815.1227375,-94
1643560241740,9815.1227408,-85
1643560241740,9815.1227458,-78
1643560241740,9815.122749,-82
1643560241740,9815.1227539,-80
1643560241740,9815.122759,-75
1643560241781,9815.1227641,-66
1643560241781,9815.1227673,-56
1643560241781,9815.1227727,-49
1643560241781,9815.122776,-44
1643560241781,9815.1227809,-42
1643560241781,9815.1227846,-33
1643560241781,9815.1227896,-21
1643560241781,9815.1227929,-11
1643560241781,9815.1227978,-7
1643560241781,9815.1228049,2
1643560241821,9815.1228094,14
1643560241821,9815.1228129,26
1643560241821,9815.122816,40
1643560241821,9815.1228192,52
1643560241821,9815.1228226,61
1643560241821,9815.1228257,78
1643560241821,9815.6717109,99
1643560241821,9815.6717228,108
1643560241821,9815.6717276,116
1643560241821,9815.6717329,127
1643560241858,9815.6717368,132
1643560241858,9815.6717416,127
1643560241858,9815.6717449,127
1643560241858,9815.6717497,113
1643560241858,9815.6717528,78
1643560241858,9815.6717575,47
1643560241858,9815.6717619,28
1643560241858,9815.6717667,0
1643560241858,9815.6717698,-23
1643560241858,9815.6717728,-37
1643560241899,9815.6717775,-54
1643560241899,9815.671782,-59
1643560241899,9815.6717868,-54
1643560241899,9815.6717898,-54
1643560241899,9815.6717945,-56
1643560241899,9815.6717975,-56
1643560241899,9815.6718022,-54
1643560241899,9815.6718052,-47
1643560241899,9815.6718083,-44
1643560241899,9815.6718131,-42
1643560241937,9815.6718162,-35
1643560241937,9815.671821,-30
1643560241937,9815.671824,-28
1643560241937,9815.6718292,-26
1643560242336,9815.6718324,-23
1643560242336,9815.6718354,-16
1643560242336,9815.6718382,-9
1643560242336,9815.671841,-9
1643560242336,9815.6718438,-9
1643560242336,9815.6718469,0
1643560242336,9815.6718498,0
1643560242336,9815.6718525,-4
1643560242336,9815.6718553,-2
1643560242336,9815.6718582,2
1643560242381,9815.671861,4
1643560242381,9815.6718638,4
1643560242381,9815.6718666,-2
1643560242381,9815.6718695,-9
1643560242381,9815.6718723,-9
1643560242381,9815.6718751,-4
1643560242381,9815.6718781,-2
1643560242381,9815.6718812,-2
1643560242381,9815.6718892,-7
1643560242381,9815.6718923,-11
1643560242424,9815.6718954,-16
1643560242424,9815.6718982,-14
1643560242424,9815.6719013,-9
1643560242424,9815.6719066,-11
1643560242424,9815.6719098,-18
1643560242424,9815.6719141,-21
1643560242424,9815.6719172,-26
1643560242424,9815.6719222,-33
1643560242424,9815.6719254,-42
1643560242424,9815.6719296,-40
1643560242469,9815.6719325,-11
1643560242469,9815.6719354,18
1643560242469,9815.6719391,37
1643560242469,9815.6719422,61
1643560242469,9815.6719473,85
1643560242469,9815.6719505,71
1643560242469,9815.6719554,33
1643560242469,9815.6719584,18
1643560242469,9815.6719632,11
1643560242469,9815.6719663,0
1643560242515,9815.6719712,-4
1643560242515,9815.6719743,-4
1643560242515,9815.6719797,-2
1643560242515,9815.6719829,-2
1643560242515,9815.6719877,-23
1643560242515,9816.3697458,-73
1643560242515,9816.3697579,14
1643560242515,9816.3697615,402
1643560242515,9816.3697648,866
1643560242515,9816.3697703,845
1643560242554,9816.3697735,262
1643560242554,9816.3697767,-104
1643560242554,9816.3697817,9
1643560242554,9816.3697866,49
1643560242554,9816.3697917,-73
1643560242554,9816.3697949,-101
1643560242554,9816.3697997,-94
1643560242554,9816.3698045,-123
1643560242554,9816.3698094,-125
1643560242554,9816.3698127,-108
1643560242595,9816.3698176,-108
1643560242595,9816.3698207,-104
1643560242595,9816.3698258,-92
1643560242595,9816.3698303,-85
1643560242595,9816.3698359,-80
1643560242595,9816.3698395,-71
1643560242595,9816.3698443,-61
1643560242595,9816.3698474,-54
1643560242595,9816.3698522,-44
1643560242595,9816.3698554,-33
1643560242632,9816.3698602,-23
1643560242632,9816.3698648,-18
1643560242632,9816.3698697,-9
1643560242632,9816.3698727,2
1643560242784,9816.369876,11
1643560242784,9816.369879,26
1643560242784,9816.369882,40
1643560242784,9816.369885,49
1643560242784,9816.369888,63
1643560242784,9816.3698909,80
1643560242784,9816.3698939,92
1643560242784,9816.3698968,108
1643560242784,9816.3698997,120
1643560242784,9816.3699027,120
1643560242824,9816.3699056,118
1643560242824,9816.3699085,111
1643560242824,9816.3699115,111
1643560242824,9816.3699144,111
1643560242824,9816.3699174,92
1643560242824,9816.3699205,56
1643560242824,9816.3699237,26
1643560242824,9816.3699298,4
1643560242824,9816.3699332,-16
1643560242824,9816.3699382,-33
1643560242866,9816.3699415,-37
1643560242866,9816.3699492,-44
1643560242866,9816.3699525,-54
1643560242866,9816.3699809,-56
1643560242866,9816.3699922,-44
1643560242866,9816.3699966,-40
1643560242866,9816.3699999,-40
1643560242866,9816.3700031,-37
1643560242866,9816.3700061,-33
1643560242866,9816.3700092,-30
1643560242905,9816.3700122,-28
1643560242905,9816.3700153,-21
1643560242905,9816.3700183,-16
1643560242905,9816.3700213,-14
1643560242905,9816.3700243,-11
1643560242905,9816.3700273,-11
1643560242905,9816.3700317,-14
1643560242905,9816.3700366,-14
1643560242905,9816.3700397,-7
1643560242905,9816.3700429,2
1643560242943,9816.3700468,4
1643560242943,9816.370051,-2
1643560242943,9816.3700543,-11
1643560242943,9816.3700601,-9
1643560242943,9816.8218234,-7
1643560242943,9816.8218356,-16
1643560242943,9816.8218402,-23
1643560242943,9816.8218435,-21
1643560242943,9816.8218467,-16
1643560242943,9816.8218512,-21
1643560242981,9816.8218561,-23
1643560242981,9816.8218593,-18
1643560242981,9816.8218641,-18
1643560242981,9816.8218671,-21
1643560242981,9816.8218703,-21
1643560242981,9816.8218751,-23
1643560242981,9816.8218781,-23
1643560242981,9816.8218812,-18
1643560242981,9816.8218861,-21
1643560242981,9816.8218909,-16
1643560243024,9816.8218958,-9
1643560243024,9816.8218989,-16
1643560243024,9816.8219037,-26
1643560243024,9816.8219081,-23
1643560243024,9816.8219132,-26
1643560243024,9816.8219161,-42
1643560243024,9816.8219192,-44
1643560243024,9816.8219235,-14
1643560243024,9816.8219267,14
1643560243024,9816.8219315,23
1643560243069,9816.8219345,44
1643560243069,9816.8219375,68
1643560243069,9816.8219405,56
1643560243069,9816.8219435,23
1643560243470,9816.8219478,11
1643560243470,9816.8219508,2
1643560243470,9816.8219537,-16
1643560243470,9816.8219566,-26
1643560243470,9816.8219619,-21
1643560243470,9816.8219655,-18
1643560243470,9816.8219684,-14
1643560243470,9816.8219713,-30
1643560243470,9816.8219742,-71
1643560243470,9816.8219772,9
1643560243516,9816.8219801,386
1643560243516,9816.821983,847
1643560243516,9816.8219858,809
1643560243516,9816.8219887,187
1643560243516,9816.8219916,-203
1643560243516,9816.8219946,-94
1643560243516,9816.8219975,-49
1643560243516,9816.8220004,-97
1643560243516,9816.8220033,-33
1643560243516,9816.8220062,-14
1643560243556,9816.8220091,-61
1643560243556,9816.822012,-59
1643560243556,9816.8220149,-37
1643560243556,9816.8220178,-42
1643560243556,9816.8220207,-35
1643560243556,9816.8220235,-21
1643560243556,9816.8220264,-21
1643560243556,9816.8220293,-18
1643560243556,9816.8220323,-9
1643560243556,9816.8220352,0
1643560243594,9816.8220381,4
1643560243594,9816.8220409,7
1643560243594,9816.8220442,18
1643560243594,9816.8220473,30
1643560243594,9816.8220515,37
1643560243594,9816.8220547,47
1643560243594,9816.8220597,54
1643560243594,9816.8220635,61
1643560243594,9816.8220686,75
1643560243594,9816.8220717,92
1643560243632,9816.8220765,101
1643560243632,9816.8220795,116
1643560243632,9816.8220836,139
1643560243632,9817.4718222,151
1643560243632,9817.4718348,151
1643560243632,9817.4718385,158
1643560243632,9817.471842,168
1643560243632,9817.4718471,172
1643560243632,9817.471851,179
1643560243632,9817.4718559,182
1643560243670,9817.4718591,170
1643560243670,9817.471864,144
1643560243670,9817.4718673,101
1643560243670,9817.4718721,44
1643560243670,9817.4718758,4
1643560243670,9817.4718808,-9
1643560243670,9817.471884,-26
1643560243670,9817.4718888,-47
1643560243670,9817.4718921,-56
1643560243670,9817.471897,-54
1643560243706,9817.4719004,-56
1643560243706,9817.4719052,-49
1643560243706,9817.4719085,-52
1643560243706,9817.4719133,-56
1643560243706,9817.4719166,-44
1643560243706,9817.4719213,-44
1643560243706,9817.4719253,-49
1643560243706,9817.4719305,-40
1643560243706,9817.4719337,-33
1643560243706,9817.4719386,-37
1643560243744,9817.471942,-30
1643560243744,9817.4719467,-16
1643560243744,9817.4719517,-16
1643560243744,9817.4719565,-23
1643560244010,9817.4719598,-14
1643560244010,9817.4719629,-7
1643560244010,9817.4719659,-4
1643560244010,9817.4719689,-9
1643560244010,9817.4719719,-18
1643560244010,9817.4719748,-18
1643560244010,9817.4719778,-2
1643560244010,9817.4719808,0
1643560244010,9817.4719837,-9
1643560244010,9817.4719867,-7
1643560244047,9817.4719897,-2
1643560244047,9817.4719927,-4
1643560244047,9817.4719956,0
1643560244047,9817.4719986,2
1643560244047,9817.4720016,0
1643560244047,9817.4720047,0
1643560244047,9817.4720078,4
1643560244047,9817.4720129,9
1643560244047,9817.4720161,4
1643560244047,9817.4720209,2
1643560244089,9817.4720241,14
1643560244089,9817.4720289,18
1643560244089,9817.4720339,14
1643560244089,9817.4720385,7
1643560244089,9817.4720417,-9
1643560244089,9817.4720466,-21
1643560244089,9817.4720505,-23
1643560244089,9817.4720552,-9
1643560244089,9817.4720591,40
1643560244089,9817.4720639,92
1643560244125,9817.4720674,106
1643560244125,9817.4720722,92
1643560244125,9817.4720754,89
1643560244125,9817.4720802,85
1643560244125,9817.4720834,63
1643560244125,9817.4720882,44
1643560244125,9817.4720914,35
1643560244125,9817.4720962,26
1643560244125,9817.4721008,26
1643560244125,9817.4721056,30
1643560244165,9817.4721095,26
1643560244165,9817.4721146,28
1643560244165,9818.0207464,4
1643560244165,9818.0207599,-49
1643560244165,9818.0207638,59
1643560244165,9818.020769,494
1643560244165,9818.0207723,987
1643560244165,9818.0207771,921
1643560244165,9818.0207804,246
1643560244165,9818.0207853,-149
1643560244204,9818.0207886,-33
1643560244204,9818.0207934,-18
1643560244204,9818.0207968,-92
1643560244204,9818.020804,-30
1643560244204,9818.0208312,-11
1643560244204,9818.0209207,-59
1643560244204,9818.0209245,-56
1643560244204,9818.0209276,-47
1643560244204,9818.0209308,-61
1643560244204,9818.0209366,-54
1643560244246,9818.0209398,-47
1643560244246,9818.020943,-49
1643560244246,9818.0209471,-49
1643560244246,9818.0209524,-59
1643560244246,9818.0209563,-68
1643560244246,9818.0209596,-56
1643560244246,9818.0209649,-42
1643560244246,9818.020968,-35
1643560244246,9818.0209712,-26
1643560244246,9818.0209762,-14
1643560244291,9818.0209794,-9
1643560244291,9818.0209826,4
1643560244291,9818.0209877,23
1643560244291,9818.0209917,33
1643560244503,9818.0209968,44
1643560244503,9818.0209999,59
1643560244503,9818.0210029,73
1643560244503,9818.0210059,92
1643560244503,9818.0210088,106
1643560244503,9818.0210118,118
1643560244503,9818.0210147,127
1643560244503,9818.0210176,134
1643560244503,9818.0210205,142
1643560244503,9818.0210235,146
1643560244564,9818.0210264,142
1643560244564,9818.0210294,130
1643560244564,9818.0210323,113
1643560244564,9818.0210352,85
1643560244564,9818.0210381,52
1643560244564,9818.0210411,23
1643560244564,9818.021044,-7
1643560244564,9818.0210469,-30
1643560244564,9818.0210499,-44
1643560244564,9818.0210528,-54
1643560244586,9818.0210557,-59
1643560244586,9818.0210588,-52
1643560244586,9818.0210617,-49
1643560244586,9818.0210646,-54
1643560244586,9818.0210718,-56
1643560244586,9818.0210775,-49
1643560244586,9818.0210818,-42
1643560244586,9818.0210869,-49
1643560244586,9818.0210907,-49
1643560244586,9818.0210959,-42
1643560244607,9818.0210992,-42
1643560244607,9818.0211042,-37
1643560244607,9818.0211074,-28
1643560244607,9818.0211124,-21
1643560244607,9818.0211158,-16
1643560244607,9818.0211208,-14
1643560244607,9818.0211241,-9
1643560244607,9818.0211291,-4
1643560244607,9818.0211326,-4
1643560244607,9818.0211376,-4
1643560244630,9818.021141,-7
1643560244630,9818.5203717,-7
1643560244630,9818.520385,-2
1643560244630,9818.5203889,-4
1643560244630,9818.5203942,-7
1643560244630,9818.5203975,-4
1643560244630,9818.5204025,-4
1643560244630,9818.5204057,-2
1643560244630,9818.5204105,-7
1643560244630,9818.5204142,-11
1643560244656,9818.5204192,-2
1643560244656,9818.5204223,-4
1643560244656,9818.5204272,-16
1643560244656,9818.5204318,-14
1643560244656,9818.5204368,-11
1643560244656,9818.5204399,-14
1643560244656,9818.5204449,-11
1643560244656,9818.5204497,-9
1643560244656,9818.5204546,-16
1643560244656,9818.5204578,-26
1643560244689,9818.5204627,-35
1643560244689,9818.520466,-54
1643560244689,9818.5204708,-66
1643560244689,9818.5204744,-35
1643560244689,9818.5204799,21
1643560244689,9818.520483,71
1643560244689,9818.5204878,73
1643560244689,9818.520491,40
1643560244689,9818.5204959,40
1643560244689,9818.5204992,54
1643560244724,9818.5205043,18
1643560244724,9818.5205075,-16
1643560244724,9818.5205124,-9
1643560244724,9818.5205177,-14
1643560245089,9818.5205229,-23
1643560245089,9818.520526,-7
1643560245089,9818.520529,2
1643560245089,9818.5205319,-14
1643560245089,9818.5205347,-37
1643560245089,9818.5205376,-75
1643560245089,9818.5205404,-42
1643560245089,9818.5205433,269
1643560245089,9818.5205461,809
1643560245089,9818.5205489,1001
1643560245123,9818.5205518,483
1643560245123,9818.5205546,-42
1643560245123,9818.5205574,14
1643560245123,9818.5205602,120
1643560245123,9818.5205631,-16
1643560245123,9818.520566,-80
1643560245123,9818.5205689,-56
1643560245123,9818.5205719,-87
1643560245123,9818.5205772,-94
1643560245123,9818.5205807,-66
1643560245160,9818.5205855,-66
1643560245160,9818.5205886,-68
1643560245160,9818.5205934,-54
1643560245160,9818.5205974,-49
1643560245160,9818.5206021,-42
1643560245160,9818.5206066,-35
1643560245160,9818.5206114,-37
1643560245160,9818.5206145,-33
1643560245160,9818.5206193,-21
1643560245160,9818.5206224,-4
1643560245188,9818.5206271,9
1643560245188,9818.5206302,7
1643560245188,9818.5206358,2
1643560245188,9818.5206397,16
1643560245188,9818.5206444,35
1643560245188,9818.5206481,44
1643560245188,9818.520653,66
1643560245188,9818.5206561,80
1643560245188,9818.520661,73
1643560245188,9818.5206657,87
1643560245225,9819.120337,123
1643560245225,9819.1203502,142
1643560245225,9819.1203584,137
1643560245225,9819.1203653,130
1643560245225,9819.1203685,123
1643560245225,9819.1203717,123
1643560245225,9819.1203769,125
1643560245225,9819.12038,120
1643560245225,9819.1203832,111
1643560245225,9819.1203879,80
1643560245256,9819.1203911,40
1643560245256,9819.120396,4
1643560245256,9819.120399,-33
1643560245256,9819.120402,-66
1643560245256,9819.120405,-78
1643560245256,9819.120408,-73
1643560245256,9819.120411,-78
1643560245256,9819.1204142,-87
1643560245256,9819.1204191,-87
1643560245256,9819.1204222,-78
1643560245289,9819.120427,-71
1643560245289,9819.1204302,-71
1643560245289,9819.1204349,-61
1643560245289,9819.1204379,-59
1643560245289,9819.120441,-68
1643560245289,9819.1204458,-61
1643560245289,9819.1204634,-37
1643560245289,9819.1204682,-35
1643560245289,9819.1204714,-40
1643560245289,9819.1204763,-30
1643560245323,9819.1204793,-30
1643560245323,9819.1204824,-40
1643560245323,9819.1204872,-35
1643560245323,9819.1204904,-28
1643560245693,9819.1204951,-28
1643560245693,9819.1204984,-18
1643560245693,9819.1205014,-4
1643560245693,9819.1205043,-9
1643560245693,9819.1205072,-23
1643560245693,9819.1205101,-16
1643560245693,9819.120513,0
1643560245693,9819.1205159,2
1643560245693,9819.1205188,-2
1643560245693,9819.1205218,0
1643560245725,9819.1205246,4
1643560245725,9819.1205276,4
1643560245725,9819.1205304,4
1643560245725,9819.1205333,4
1643560245725,9819.1205369,0
1643560245725,9819.1205398,0
1643560245725,9819.1205426,11
1643560245725,9819.1205455,21
1643560245725,9819.1205484,18
1643560245725,9819.1205514,16
1643560245748,9819.1207844,9
1643560245748,9819.1207949,-7
1643560245748,9819.1207991,-7
1643560245748,9819.1208022,0
1643560245748,9819.1208052,14
1643560245748,9819.1208081,52
1643560245748,9819.120811,104
1643560245748,9819.120814,120
1643560245748,9819.1208169,99
1643560245748,9819.1208198,85
1643560245772,9819.1208227,87
1643560245772,9819.1208257,56
1643560245772,9819.1208286,21
1643560245772,9819.1208316,18
1643560245772,9819.1208345,16
1643560245772,9819.1208375,7
1643560245772,9819.1208405,9
1643560245772,9819.1208434,14
1643560245772,9819.1208468,21
1643560245772,9819.7161623,14
1643560245798,9819.7161748,-33
1643560245798,9819.7161784,0
1643560245798,9819.7161817,319
1643560245798,9819.7161857,831
1643560245798,9819.7161898,966
1643560245798,9819.7161928,407
1643560245798,9819.7161978,-101
1643560245798,9819.7162018,-63
1643560245798,9819.7162066,-2
1643560245798,9819.7162095,-82
1643560245824,9819.7162132,-49
1643560245824,9819.7162178,-9
1643560245824,9819.7162209,-54
1643560245824,9819.7162257,-59
1643560245824,9819.7162305,-35
1643560245824,9819.7162354,-49
1643560245824,9819.7162385,-56
1643560245824,9819.7162434,-44
1643560245824,9819.716248,-37
1643560245824,9819.7162529,-33
1643560245849,9819.7162575,-28
1643560245849,9819.7162623,-30
1643560245849,9819.7162652,-23
1643560245849,9819.7162683,-11
1643560245849,9819.7162733,0
1643560245849,9819.7162763,18
1643560245849,9819.7162793,42
1643560245849,9819.7162833,42
1643560245849,9819.7162881,37
1643560245849,9819.716291,54
1643560245873,9819.7162941,75
1643560245873,9819.7162982,89
1643560245873,9819.7163029,113
1643560245873,9819.7163071,132
1643560246224,9819.7163111,149
1643560246224,9819.7163141,165
1643560246224,9819.716317,179
1643560246224,9819.7163198,191
1643560246224,9819.7163227,196
1643560246224,9819.7163256,203
1643560246224,9819.7163284,206
1643560246224,9819.7163313,196
1643560246224,9819.7163341,189
1643560246224,9819.716337,172
1643560246258,9819.7163405,132
1643560246258,9819.7163435,85
1643560246258,9819.7163464,49
1643560246258,9819.7163493,14
1643560246258,9819.7163522,-18
1643560246258,9819.716355,-35
1643560246258,9819.7163582,-47
1643560246258,9819.7163613,-61
1643560246258,9819.7163655,-66
1643560246258,9819.7163695,-61
1643560246298,9819.7163743,-56
1643560246298,9819.7163773,-52
1643560246298,9819.7163803,-59
1643560246298,9819.7163857,-59
1643560246298,9819.7163903,-44
1643560246298,9819.7163952,-52
1643560246298,9819.7163982,-63
1643560246298,9819.7164013,-54
1643560246298,9819.7164061,-40
1643560246298,9819.7164105,-30
1643560246324,9819.7164145,-21
1643560246324,9819.7164193,-14
1643560246324,9819.7164238,-7
1643560246324,9819.7164278,0
1643560246324,9819.7164309,-2
1643560246324,9819.7164357,0
1643560246324,9819.71644,9
1643560246324,9819.7164448,9
1643560246324,9820.266792,9
1643560246324,9820.2668051,16
1643560246358,9820.2668089,7
1643560246358,9820.2668146,0
1643560246358,9820.266818,4
1643560246358,9820.266823,11
1643560246358,9820.2668263,14
1643560246358,9820.266831,16
1643560246358,9820.2668342,21
1643560246358,9820.2668564,11
1643560246358,9820.2668674,-2
1643560246358,9820.2668732,-7
1643560246396,9820.2668766,-9
1643560246396,9820.2668815,-11
1643560246396,9820.2668849,-11
1643560246396,9820.2669005,-7
1643560246396,9820.2669065,23
1643560246396,9820.2669099,71
1643560246396,9820.2669148,75
1643560246396,9820.2669181,42
1643560246396,9820.266923,42
1643560246396,9820.2669265,47
1643560246425,9820.2669315,14
1643560246425,9820.2669366,-11
1643560246425,9820.2669416,-9
1643560246425,9820.2669447,-9
1643560246425,9820.2669479,-14
1643560246425,9820.266953,-11
1643560246425,9820.2669561,-2
1643560246425,9820.2669593,0
1643560246425,9820.2669646,-14
1643560246425,9820.2669678,-56
1643560246458,9820.2669726,-11
1643560246458,9820.2669766,329
1643560246458,9820.2669814,850
1643560246458,9820.2669846,944
1643560246794,9820.2669898,322
1643560246794,9820.266993,-215
1643560246794,9820.266996,-165
1643560246794,9820.2669991,-101
1643560246794,9820.2670021,-156
1643560246794,9820.2670051,-61
1643560246794,9820.267008,11
1643560246794,9820.267011,-35
1643560246794,9820.267014,-47
1643560246794,9820.267017,-21
1643560246827,9820.26702,-28
1643560246827,9820.2670229,-28
1643560246827,9820.2670259,-11
1643560246827,9820.2670289,-4
1643560246827,9820.2670319,-7
1643560246827,9820.2670349,0
1643560246827,9820.2670378,4
1643560246827,9820.2670408,4
1643560246827,9820.2670473,16
1643560246827,9820.2670517,23
1643560246860,9820.2670567,26
1643560246860,9820.2670598,37
1643560246860,9820.267063,49
1643560246860,9820.2670679,56
1643560246860,9820.267072,73
1643560246860,9820.2670752,92
1643560246860,9820.2670785,104
1643560246860,9820.2670817,118
1643560246860,9820.2670862,127
1643560246860,9820.2670894,142
1643560246892,9820.2670943,170
1643560246892,9820.2670976,187
1643560246892,9820.2671024,182
1643560246892,9820.2671149,189
1643560246892,9820.26713,201
1643560246892,9820.2671362,198
1643560246892,9820.2671397,187
1643560246892,9820.8200538,175
1643560246892,9820.8200641,156
1643560246892,9820.8200799,111
1643560246928,9820.8201036,54
1643560246928,9820.8201118,7
1643560246928,9820.8201155,-21
1643560246928,9820.8201195,-40
1643560246928,9820.8201225,-54
1643560246928,9820.8201253,-71
1643560246928,9820.8201284,-87
1643560246928,9820.8201324,-82
1643560246928,9820.8201353,-66
1643560246928,9820.8201382,-61
1643560246960,9820.8201412,-78
1643560246960,9820.8201441,-101
1643560246960,9820.820171,-99
1643560246960,9820.8201787,-85
1643560246960,9820.8201831,-87
1643560246960,9820.8201882,-87
1643560246960,9820.8201916,-73
1643560246960,9820.8201963,-71
1643560246960,9820.8202008,-75
1643560246960,9820.8202057,-63
1643560246993,9820.8202101,-44
1643560246993,9820.8202148,-35
1643560246993,9820.8202192,-30
1643560246993,9820.820224,-23
1643560246993,9820.8202275,-26
1643560246993,9820.8202303,-33
1643560246993,9820.8202506,-33
1643560246993,9820.820254,-21
1643560246993,9820.8202572,-16
1643560246993,9820.8202611,-23
1643560247028,9820.8202658,-26
1643560247028,9820.8202703,-16
1643560247028,9820.8202732,-18
1643560247028,9820.820276,-26
1643560247426,9820.820289,-21
1643560247426,9820.820292,-16
1643560247426,9820.8203073,-11
1643560247426,9820.8203108,-9
1643560247426,9820.8203138,-11
1643560247426,9820.8203166,-16
1643560247426,9820.8203194,-21
1643560247426,9820.8203223,-30
1643560247426,9820.8203252,-47
1643560247426,9820.8203281,-59
1643560247465,9820.820331,-33
1643560247465,9820.820334,18
1643560247465,9820.8203368,40
1643560247465,9820.8203398,52
1643560247465,9820.8203426,80
1643560247465,9820.8203455,75
1643560247465,9820.8203483,30
1643560247465,9820.8203512,14
1643560247465,9820.820354,14
1643560247465,9820.8203569,-4
1643560247495,9820.8203598,-11
1643560247495,9820.8203626,-4
1643560247495,9820.8203654,-7
1643560247495,9820.8203692,-7
1643560247495,9820.820372,-18
1643560247495,9820.8203749,-80
1643560247495,9820.8203777,-44
1643560247495,9820.8203806,298
1643560247495,9820.8203835,833
1643560247495,9820.8203864,989
1643560247526,9820.8203892,468
1643560247526,9820.8203921,-33
1643560247526,9820.820395,-11
1643560247526,9820.8203978,49
1643560247526,9820.8204006,-52
1643560247526,9820.8204035,-85
1643560247526,9821.468173,-80
1643560247526,9821.4681861,-111
1643560247526,9821.4681915,-118
1643560247526,9821.4681971,-101
1643560247564,9821.4682006,-94
1643560247564,9821.4682058,-94
1643560247564,9821.4682091,-92
1643560247564,9821.4682141,-82
1643560247564,9821.4682188,-73
1643560247564,9821.4682241,-66
1643560247564,9821.4682276,-61
1643560247564,9821.4682326,-54
1643560247564,9821.468236,-68
1643560247564,9821.4682411,-89
1643560247596,9821.4682442,-85
1643560247596,9821.4682485,-61
1643560247596,9821.4682541,-52
1643560247596,9821.4682574,-52
1643560247596,9821.4682623,-54
1643560247596,9821.4682674,-59
1643560247596,9821.4682706,-52
1643560247596,9821.4682756,-28
1643560247596,9821.4682788,-7
1643560247596,9821.4682821,18
1643560247629,9821.4682872,44
1643560247629,9821.4682912,59
1643560247629,9821.4682964,56
1643560247629,9821.4683001,68
1643560247629,9821.4683054,87
1643560247629,9821.4683087,92
1643560247629,9821.4683136,89
1643560247629,9821.4683168,78
1643560247629,9821.4683201,47
1643560247629,9821.468325,4
1643560247662,9821.4683282,-23
1643560247662,9821.4683333,-47
1643560247662,9821.4683365,-78
1643560247662,9821.4683415,-104
1643560247835,9821.4683449,-111
1643560247835,9821.4683481,-116
1643560247835,9821.4683512,-123
1643560247835,9821.4683544,-123
1643560247835,9821.4683574,-118
1643560247835,9821.4683605,-113
1643560247835,9821.4683636,-104
1643560247835,9821.4683666,-106
1643560247835,9821.4683697,-106
1643560247835,9821.4683727,-89
1643560247880,9821.4683757,-80
1643560247880,9821.4683788,-78
1643560247880,9821.4683818,-61
1643560247880,9821.4683848,-66
1643560247880,9821.4683879,-71
1643560247880,9821.468391,-40
1643560247880,9821.4683941,-26
1643560247880,9821.4683971,-47
1643560247880,9821.4684001,-42
1643560247880,9821.4684031,-21
1643560247918,9821.4684063,-23
1643560247918,9821.4684114,-35
1643560247918,9821.4684145,-26
1643560247918,9821.4684178,-7
1643560247918,9821.468422,-4
1643560247918,9821.4684253,-11
1643560247918,9821.4684303,-28
1643560247918,9821.4684334,-35
1643560247918,9821.4684367,-18
1643560247918,9821.4684416,4
1643560247959,9821.4684452,16
1643560247959,9821.4684484,21
1643560247959,9821.4684534,30
1643560247959,9821.4684567,33
1643560247959,9821.4684617,26
1643560247959,9821.8742327,14
1643560247959,9821.874247,0
1643560247959,9821.8742506,7
1643560247959,9821.8742539,42
1643560247959,9821.8742571,73
1643560248006,9821.8742602,78
1643560248006,9821.8742637,92
1643560248006,9821.8742668,118
1643560248006,9821.8742698,120
1643560248006,9821.8742728,87
1643560248006,9821.8742758,66
1643560248006,9821.8742789,54
1643560248006,9821.8742819,40
1643560248006,9821.8742849,44
1643560248006,9821.874288,56
1643560248048,9821.874291,61
1643560248048,9821.874294,54
1643560248048,9821.8742971,21
1643560248048,9821.8743004,-21
1643560248048,9821.8743035,89
1643560248048,9821.8743065,497
1643560248048,9821.8743096,968
1643560248048,9821.8743126,923
1643560248048,9821.8743156,286
1643560248048,9821.8743188,-125
1643560248093,9821.8743218,-56
1643560248093,9821.8743248,-40
1643560248093,9821.8743278,-75
1643560248093,9821.8743308,-7
1643560248093,9821.8743338,-2
1643560248093,9821.8743369,-63
1643560248093,9821.8743398,-61
1643560248093,9821.8743429,-35
1643560248093,9821.8743459,-33
1643560248093,9821.8743489,-35
1643560248130,9821.8743519,-35
1643560248130,9821.8743549,-30
1643560248130,9821.8743579,-18
1643560248130,9821.874361,0
1643560248514,9821.8743644,23
1643560248514,9821.8743673,30
1643560248514,9821.8743704,23
1643560248514,9821.8743734,28
1643560248514,9821.8743765,42
1643560248514,9821.8743795,47
1643560248514,9821.8743826,56
1643560248514,9821.8743855,71
1643560248514,9821.8743885,80
1643560248514,9821.8743914,89
1643560248558,9821.8743944,108
1643560248558,9821.8743974,127
1643560248558,9821.8744004,139
1643560248558,9821.8744035,161
1643560248558,9821.8744066,187
1643560248558,9821.8744095,201
1643560248558,9821.8744125,206
1643560248558,9821.8744155,210
1643560248558,9821.8744185,217
1643560248558,9821.8744216,227
1643560248606,9821.8744245,220
1643560248606,9821.8744275,194
1643560248606,9821.8744307,158
1643560248606,9821.8744339,118
1643560248606,9821.8744369,75
1643560248606,9821.8744403,42
1643560248606,9821.8744435,11
1643560248606,9821.8744481,-14
1643560248606,9821.8744517,-23
1643560248606,9821.874455,-26
1643560248639,9821.8744581,-30
1643560248639,9821.8744614,-30
1643560248639,9821.8744647,-26
1643560248639,9821.8744678,-21
1643560248639,9822.5191275,-18
1643560248639,9822.5191408,-18
1643560248639,9822.5191445,-16
1643560248639,9822.5191499,-14
1643560248639,9822.5191532,-14
1643560248639,9822.5191581,-14
1643560248677,9822.5191612,-14
1643560248677,9822.5191664,-4
1643560248677,9822.51917,0
1643560248677,9822.519175,-21
1643560248677,9822.5191782,-35
1643560248677,9822.519183,-21
1643560248677,9822.5191863,-21
1643560248677,9822.5192045,-23
1643560248677,9822.5192111,-18
1643560248677,9822.5192144,-18
1643560248715,9822.5192196,-23
1643560248715,9822.5192229,-23
1643560248715,9822.5192548,-21
1643560248715,9822.5192604,-21
1643560248715,9822.5192638,-23
1643560248715,9822.5192687,-21
1643560248715,9822.5192721,-18
1643560248715,9822.5192772,-23
1643560248715,9822.5192805,-28
1643560248715,9822.5192854,-30
1643560248753,9822.5192903,-37
1643560248753,9822.5192957,-37
1643560248753,9822.5192998,-37
1643560248753,9822.5193052,-52
1643560248753,9822.5193091,-61
1643560248753,9822.5193141,-37
1643560248753,9822.5193179,4
1643560248753,9822.519323,33
1643560248753,9822.5193269,44
1643560248753,9822.5193319,56
1643560248791,9822.5193354,61
1643560248791,9822.5193403,47
1643560248791,9822.5193437,21
1643560248791,9822.5193488,4
1643560249011,9822.5193522,2
1643560249011,9822.5193554,2
1643560249011,9822.5193586,-7
1643560249011,9822.5193621,-11
1643560249011,9822.5193655,-14
1643560249011,9822.5193687,-16
1643560249011,9822.5193719,-49
1643560249011,9822.5193749,-71
1643560249011,9822.5193783,134
1643560249011,9822.5193815,625
1643560249049,9822.5193845,987
1643560249049,9822.5193876,698
1643560249049,9822.5193906,104
1643560249049,9822.5193937,-40
1643560249049,9822.5193967,71
1643560249049,9822.5193998,4
1643560249049,9822.5194029,-68
1643560249049,9822.519406,-49
1643560249049,9822.519409,-59
1643560249049,9822.5194122,-89
1643560249088,9822.5194152,-80
1643560249088,9822.5194184,-63
1643560249088,9822.5194216,-61
1643560249088,9822.5194269,-61
1643560249088,9822.5194309,-59
1643560249088,9822.5194359,-59
1643560249088,9822.5194391,-47
1643560249088,9822.5194424,-35
1643560249088,9822.5194474,-30
1643560249088,9822.5194509,-21
1643560249127,9822.5194559,-9
1643560249127,9822.5194593,-2
1643560249127,9822.5194642,4
1643560249127,9823.0225621,9
1643560249127,9823.0225738,7
1643560249127,9823.0225785,14
1643560249127,9823.0225837,30
1643560249127,9823.0225868,44
1643560249127,9823.02259,56
1643560249127,9823.0225949,73
1643560249169,9823.0225998,87
1643560249169,9823.0226048,94
1643560249169,9823.0226086,106
1643560249169,9823.0226134,123
1643560249169,9823.0226166,137
1643560249169,9823.0226218,149
1643560249169,9823.0226249,163
1643560249169,9823.0226297,158
1643560249169,9823.0226343,127
1643560249169,9823.0226391,101
1643560249209,9823.0226422,71
1643560249209,9823.022647,21
1643560249209,9823.0226501,-11
1643560249209,9823.0226534,-37
1643560249209,9823.0226582,-82
1643560249209,9823.0226613,-108
1643560249209,9823.0226644,-108
1643560249209,9823.0226692,-104
1643560249209,9823.022674,-104
1643560249209,9823.0226788,-111
1643560249244,9823.0226835,-101
1643560249244,9823.0226885,-92
1643560249244,9823.0226916,-94
1643560249244,9823.0226956,-99
1643560249244,9823.0226987,-97
1643560249244,9823.0227031,-97
1643560249244,9823.0227063,-89
1643560249244,9823.0227115,-85
1643560249244,9823.0227154,-82
1643560249244,9823.0227203,-80
1643560249283,9823.0227248,-78
1643560249283,9823.0227295,-71
1643560249283,9823.022756,-63
1643560249283,9823.022761,-66
1643560249596,9823.0227642,-61
1643560249596,9823.0227674,-49
1643560249596,9823.0227704,-49
1643560249596,9823.0227734,-54
1643560249596,9823.0227763,-59
1643560249596,9823.0227793,-54
1643560249596,9823.0227823,-49
1643560249596,9823.0227853,-49
1643560249596,9823.0227882,-37
1643560249596,9823.0227912,-30
1643560249627,9823.0227941,-47
1643560249627,9823.0227971,-59
1643560249627,9823.0228,-47
1643560249627,9823.022803,-42
1643560249627,9823.022806,-47
1643560249627,9823.022811,-44
1643560249627,9823.0228164,-35
1643560249627,9823.0228195,-37
1643560249627,9823.0228227,-42
1643560249627,9823.0228277,-44
1643560249661,9823.0228324,-56
1643560249661,9823.0228372,-59
1643560249661,9823.0228418,-33
1643560249661,9823.0228466,0
1643560249661,9823.0228513,14
1643560249661,9823.0228562,16
1643560249661,9823.0228592,52
1643560249661,9823.0228635,71
1643560249661,9823.0228667,23
1643560249661,9823.0228716,-7
1643560249695,9823.0228752,4
1643560249695,9823.0228784,-4
1643560249695,9823.6194605,-14
1643560249695,9823.6194727,-2
1643560249695,9823.6194764,-4
1643560249695,9823.6194798,-14
1643560249695,9823.619485,-14
1643560249695,9823.6194896,-63
1643560249695,9823.6194929,-33
1643560249695,9823.6194974,324
1643560249734,9823.6195007,864
1643560249734,9823.6195056,973
1643560249734,9823.6195089,388
1643560249734,9823.6195139,-132
1643560249734,9823.6195172,-125
1643560249734,9823.6195221,-97
1643560249734,9823.6195257,-161
1643560249734,9823.6195306,-108
1643560249734,9823.619534,-80
1643560249734,9823.6195392,-116
1643560249769,9823.6195431,-106
1643560249769,9823.6195482,-87
1643560249769,9823.6195516,-89
1643560249769,9823.6195565,-85
1643560249769,9823.6195598,-82
1643560249769,9823.6195648,-80
1643560249769,9823.6195691,-71
1643560249769,9823.6195741,-63
1643560249769,9823.6195778,-61
1643560249769,9823.6195827,-42
1643560249806,9823.6195863,-21
1643560249806,9823.6195895,-18
1643560249806,9823.6195944,-18
1643560249806,9823.6195983,-7
1643560249806,9823.6196033,2
1643560249806,9823.6196066,18
1643560249806,9823.6196116,35
1643560249806,9823.6196152,52
1643560249806,9823.6196201,71
1643560249806,9823.619624,89
1643560249842,9823.6196288,106
1643560249842,9823.6196327,125
1643560249842,9823.6196377,151
1643560249842,9823.6196423,175
1643560250178,9823.6196472,196
1643560250178,9823.6196505,206
1643560250178,9823.6196536,206
1643560250178,9823.6196567,203
1643560250178,9823.6196598,203
1643560250178,9823.6196627,196
1643560250178,9823.6196658,170
1643560250178,9823.6196688,120
1643560250178,9823.6196718,71
1643560250178,9823.6196749,35
1643560250214,9823.6196779,4
1643560250214,9823.6196809,-26
1643560250214,9823.6196839,-49
1643560250214,9823.6196872,-56
1643560250214,9823.6196923,-49
1643560250214,9823.6196955,-56
1643560250214,9823.6196988,-61
1643560250214,9823.6197039,-44
1643560250214,9823.6197078,-37
1643560250214,9823.6197131,-47
1643560250253,9823.6197181,-47
1643560250253,9823.6197234,-35
1643560250253,9823.6197268,-28
1643560250253,9823.6197317,-26
1643560250253,9823.6197357,-28
1643560250253,9823.6197406,-26
1643560250253,9823.6197446,-7
1643560250253,9823.6197497,0
1643560250253,9823.6197531,-7
1643560250253,9823.619758,7
1643560250293,9823.6197613,18
1643560250293,9824.216184,9
1643560250293,9824.2161964,9
1643560250293,9824.2162,18
1643560250293,9824.2162033,7
1643560250293,9824.2162076,-2
1643560250293,9824.2162118,0
1643560250293,9824.2162151,7
1643560250293,9824.2162217,9
1643560250293,9824.2162263,4
1643560250329,9824.2162314,4
1643560250329,9824.2162344,-2
1643560250329,9824.2162375,-23
1643560250329,9824.2162407,-47
1643560250329,9824.2162463,-54
1643560250329,9824.2162494,-52
1643560250329,9824.2162535,-56
1643560250329,9824.2162567,-68
1643560250329,9824.2162754,-68
1643560250329,9824.2162913,-49
1643560250368,9824.216298,-28
1643560250368,9824.2163016,-18
1643560250368,9824.2163071,-4
1643560250368,9824.2163103,42
1643560250368,9824.2163136,59
1643560250368,9824.2163185,11
1643560250368,9824.2163239,-23
1643560250368,9824.216327,-21
1643560250368,9824.2163304,-23
1643560250368,9824.2163346,-26
1643560250406,9824.2163395,-18
1643560250406,9824.2163435,-21
1643560250406,9824.2163491,-21
1643560250406,9824.2163527,-26
1643560250406,9824.2163558,-87
1643560250406,9824.2163614,-28
1643560250406,9824.2163648,416
1643560250406,9824.2163699,1018
1643560250406,9824.2163731,1049
1643560250406,9824.216378,326
1643560250447,9824.2163811,-213
1643560250447,9824.2163844,-146
1643560250447,9824.2163894,-80
1643560250447,9824.2163927,-123
1643560250757,9824.2163988,-66
1643560250757,9824.2164019,-49
1643560250757,9824.2164049,-80
1643560250757,9824.216408,-59
1643560250757,9824.2164109,-52
1643560250757,9824.2164139,-71
1643560250757,9824.2164169,-47
1643560250757,9824.2164199,-26
1643560250757,9824.2164229,-52
1643560250757,9824.2164258,-61
1643560250813,9824.2164288,-33
1643560250813,9824.2164318,-14
1643560250813,9824.2164347,-14
1643560250813,9824.2164377,-7
1643560250813,9824.2164406,-9
1643560250813,9824.2164435,-9
1643560250813,9824.2164464,18
1643560250813,9824.2164497,40
1643560250813,9824.216457,42
1643560250813,9824.216462,49
1643560250848,9824.216465,63
1643560250848,9824.2164679,87
1643560250848,9824.216471,118
1643560250848,9824.2164743,137
1643560250848,9824.2164801,156
1643560250848,9824.2164845,189
1643560250848,9824.2164897,203
1643560250848,9824.2164929,196
1643560250848,9824.2164981,203
1643560250848,9824.2165013,215
1643560250887,9824.721053,208
1643560250887,9824.7210651,196
1643560250887,9824.721071,198
1643560250887,9824.7210765,179
1643560250887,9824.7210797,120
1643560250887,9824.721083,56
1643560250887,9824.7210881,9
1643560250887,9824.7210923,-28
1643560250887,9824.7210974,-35
1643560250887,9824.7211024,-28
1643560250926,9824.7211106,-47
1643560250926,9824.721114,-54
1643560250926,9824.7211193,-30
1643560250926,9824.7211227,-42
1643560250926,9824.7211279,-73
1643560250926,9824.7211312,-59
1643560250926,9824.7211345,-42
1643560250926,9824.7211398,-75
1643560250926,9824.7211429,-75
1643560250926,9824.7211463,-61
1643560250960,9824.7211514,-89
1643560250960,9824.7211562,-49
1643560250960,9824.7211613,7
1643560250960,9824.7211645,-75
1643560250960,9824.7211695,-120
1643560250960,9824.7211744,0
1643560250960,9824.7211795,94
1643560250960,9824.7211835,73
1643560250960,9824.721189,26
1643560250960,9824.7211925,42
1643560250992,9824.7211975,97
1643560250992,9824.7212013,113
1643560250992,9824.7212064,120
1643560250992,9824.7212097,134
1643560250992,9824.7212146,120
1643560250992,9824.7212178,73
1643560250992,9824.7212212,42
1643560250992,9824.7212263,87
1643560250992,9824.7212311,101
1643560250992,9824.7212365,75
1643560251026,9824.7212399,59
1643560251026,9824.7212454,21
1643560251026,9824.7212496,26
1643560251026,9824.7212545,56
1643560251196,9824.7212587,52
1643560251196,9824.7212623,54
1643560251196,9824.7212655,44
1643560251196,9824.7212687,23
1643560251196,9824.7212719,26
1643560251196,9824.721275,73
1643560251196,9824.7212785,123
1643560251196,9824.7212817,120
1643560251196,9824.7212848,82
1643560251196,9824.7212879,42
1643560251236,9824.7212911,23
1643560251236,9824.7212941,35
1643560251236,9824.7212972,47
1643560251236,9824.7213003,63
1643560251236,9824.7213035,66
1643560251236,9824.7213066,42
1643560251236,9824.7213101,-9
1643560251236,9824.7213153,-66
1643560251236,9824.7213193,40
1643560251236,9824.7213242,426
1643560251272,9824.7213274,890
1643560251272,9824.7213307,949
1643560251272,9824.7213356,485
1643560251272,9824.7213405,153
1643560251272,9824.7213456,175
1643560251272,9824.7213497,104
1643560251272,9824.7213547,-63
1643560251272,9824.7213583,-101
1643560251272,9824.7213633,-82
1643560251272,9825.2217984,-97
1643560251317,9825.2218098,-106
1643560251317,9825.2218134,-108
1643560251317,9825.2218167,-104
1643560251317,9825.221821,-87
1643560251317,9825.2218241,-80
1643560251317,9825.2218279,-97
1643560251317,9825.2218312,-99
1643560251317,9825.221836,-63
1643560251317,9825.2218408,-28
1643560251317,9825.2218457,-21
1643560251354,9825.2218489,-40
1643560251354,9825.2218538,-40
1643560251354,9825.2218569,-7
1643560251354,9825.2218617,-7
1643560251354,9825.2218661,-42
1643560251354,9825.221871,-66
1643560251354,9825.2218757,-26
1643560251354,9825.2218806,11
1643560251354,9825.2218838,-16
1643560251354,9825.221889,4
1643560251391,9825.2218924,75
1643560251391,9825.2218955,42
1643560251391,9825.2219004,-47
1643560251391,9825.2219035,7
1643560251391,9825.2219082,201
1643560251391,9825.2219127,220
1643560251391,9825.2219174,97
1643560251391,9825.2219222,151
1643560251391,9825.2219269,210
1643560251391,9825.2219299,106
1643560251428,9825.2219348,66
1643560251428,9825.2219395,116
1643560251428,9825.2219448,75
1643560251428,9825.2219496,-11
1643560251428,9825.2219545,-37
1643560251428,9825.221959,-18
1643560251428,9825.2219639,2
1643560251428,9825.221967,-21
1643560251428,9825.2219721,-63
1643560251428,9825.2219751,-30
1643560251466,9825.2219801,30
1643560251466,9825.2219846,-7
1643560251466,9825.2219895,-137
1643560251466,9825.2219925,-130
1643560251756,9825.2219973,63
1643560251756,9825.222001,61
1643560251756,9825.222004,-68
1643560251756,9825.222007,2
1643560251756,9825.2220099,23
1643560251756,9825.2220129,-94
1643560251756,9825.2220158,-40
1643560251756,9825.2220189,68
1643560251756,9825.2220218,2
1643560251756,9825.2220248,-66
1643560251790,9825.2220277,-14
1643560251790,9825.2220306,16
1643560251790,9825.2220335,-2
1643560251790,9825.2220364,47
1643560251790,9825.2220394,66
1643560251790,9825.2220424,-11
1643560251790,9825.2220455,-37
1643560251790,9825.2220496,-4
1643560251790,9825.2220528,9
1643560251790,9825.2220578,18
1643560251827,9825.2220613,7
1643560251827,9825.2220644,-28
1643560251827,9825.2220694,-42
1643560251827,9825.2220724,-7
1643560251827,9825.2220755,18
1643560251827,9825.2220805,-2
1643560251827,9825.2220835,-26
1643560251827,9825.2220866,-56
1643560251827,9825.7718896,-78
1643560251827,9825.7719018,-66
1643560251861,9825.7719068,-4
1643560251861,9825.7719121,59
1643560251861,9825.7719153,63
1643560251861,9825.7719202,59
1643560251861,9825.7719233,68
1643560251861,9825.7719266,21
1643560251861,9825.7719315,-44
1643560251861,9825.7719347,-33
1643560251861,9825.7719395,-18
1643560251861,9825.7719436,-30
1643560251899,9825.7719485,14
1643560251899,9825.7719517,49
1643560251899,9825.771955,-16
1643560251899,9825.77196,-92
1643560251899,9825.7719633,-87
1643560251899,9825.7719665,66
1643560251899,9825.7719715,471
1643560251899,9825.7719746,921
1643560251899,9825.7719796,795
1643560251899,9825.7719846,158
1643560251935,9825.7719895,-125
1643560251935,9825.771994,-35
1643560251935,9825.7719993,-92
1643560251935,9825.7720032,-153
1643560251935,9825.7720085,-71
1643560251935,9825.7720121,-52
1643560251935,9825.7720171,-104
1643560251935,9825.7720203,-104
1643560251935,9825.7720252,-82
1643560251935,9825.7720284,-68
1643560251974,9825.7720333,-61
1643560251974,9825.7720365,-71
1643560251974,9825.7720414,-73
1643560251974,9825.7720445,-56
1643560251974,9825.7720494,-37
1643560251974,9825.7720525,-30
1643560251974,9825.7720557,-26
1643560251974,9825.772061,-37
1643560251974,9825.7720649,-37
1643560251974,9825.7720698,-4
1643560252010,9825.7720734,14
1643560252010,9825.7720785,35
1643560252010,9825.7720819,75
1643560252010,9825.7720869,59
1643560252357,9825.7720901,26
1643560252357,9825.7720932,56
1643560252357,9825.7720963,118
1643560252357,9825.7720993,144
1643560252357,9825.7721023,130
1643560252357,9825.7721053,125
1643560252357,9825.7721083,161
1643560252357,9825.7721113,175
1643560252357,9825.7721144,165
1643560252357,9825.7721174,189
1643560252388,9825.7721204,177
1643560252388,9825.7721234,139
1643560252388,9825.7721265,161
1643560252388,9825.7721295,151
1643560252388,9825.7721325,59
1643560252388,9825.7721355,9
1643560252388,9825.7721385,14
1643560252388,9825.7721416,-33
1643560252388,9825.7721445,-82
1643560252388,9825.7721477,-52
1643560252421,9825.772154,-23
1643560252421,9825.77216,-71
1643560252421,9825.7721633,-118
1643560252421,9825.7721683,-85
1643560252421,9825.7721715,-35
1643560252421,9825.7721757,-28
1643560252421,9825.772179,-40
1643560252421,9826.3726785,-35
1643560252421,9826.3726906,-28
1643560252421,9826.3726944,-30
1643560252472,9826.3726976,-33
1643560252472,9826.3727006,-44
1643560252472,9826.3727037,-66
1643560252472,9826.3727068,-61
1643560252472,9826.3727098,-47
1643560252472,9826.3727128,-42
1643560252472,9826.3727158,-33
1643560252472,9826.3727188,-52
1643560252472,9826.3727218,-82
1643560252472,9826.3727248,-71
1643560252508,9826.3727281,-35
1643560252508,9826.3727318,-14
1643560252508,9826.3727347,-16
1643560252508,9826.3727377,-21
1643560252508,9826.3727407,-16
1643560252508,9826.3727436,-40
1643560252508,9826.3727466,-59
1643560252508,9826.3727495,-9
1643560252508,9826.3727525,2
1643560252508,9826.3727556,-54
1643560252545,9826.3727585,-63
1643560252545,9826.3727615,-44
1643560252545,9826.3727644,-42
1643560252545,9826.3727674,-40
1643560252545,9826.3727704,-23
1643560252545,9826.3727734,-4
1643560252545,9826.3727764,18
1643560252545,9826.3727794,63
1643560252545,9826.3727824,75
1643560252545,9826.3727853,28
1643560252583,9826.3727884,0
1643560252583,9826.3727915,18
1643560252583,9826.3727945,-2
1643560252583,9826.3727975,-59
1643560252583,9826.3728009,-52
1643560252583,9826.3728039,-14
1643560252583,9826.372807,-33
1643560252583,9826.3728099,-66
1643560252583,9826.3728129,-71
1643560252583,9826.3728159,21
1643560252621,9826.3728189,388
1643560252621,9826.3728219,940
1643560252621,9826.3728249,1025
1643560252621,9826.3728279,348
1643560252904,9826.3728309,-227
1643560252904,9826.3728339,-189
1643560252904,9826.3728369,-116
1643560252904,9826.3728398,-172
1643560252904,9826.3728428,-113
1643560252904,9826.3728457,-52
1643560252904,9826.3728486,-78
1643560252904,9826.3728517,-80
1643560252904,9826.3728547,-66
1643560252904,9826.3728576,-73
1643560252936,9826.3728606,-63
1643560252936,9826.3728643,-44
1643560252936,9826.3728673,-44
1643560252936,9826.3728703,-49
1643560252936,9826.3728733,-44
1643560252936,9826.3728768,-37
1643560252936,9826.3728797,-30
1643560252936,9826.3728827,-21
1643560252936,9826.3728857,-4
1643560252936,9826.3728887,-2
1643560252969,9826.3728922,-4
1643560252969,9826.3728952,2
1643560252969,9826.3728983,21
1643560252969,9826.3729014,59
1643560252969,9826.3729044,61
1643560252969,9826.3729074,37
1643560252969,9826.9218839,68
1643560252969,9826.921897,123
1643560252969,9826.9219026,134
1643560252969,9826.9219079,130
1643560253002,9826.9219113,163
1643560253002,9826.9219163,213
1643560253002,9826.9219209,220
1643560253002,9826.921926,189
1643560253002,9826.9219309,177
1643560253002,9826.921936,196
1643560253002,9826.9219392,175
1643560253002,9826.9219435,94
1643560253002,9826.9219468,28
1643560253002,9826.9219517,16
1643560253037,9826.9219548,11
1643560253037,9826.9219591,-26
1643560253037,9826.9219625,-78
1643560253037,9826.9219675,-97
1643560253037,9826.9219715,-80
1643560253037,9826.9219769,-80
1643560253037,9826.9219801,-99
1643560253037,9826.9219852,-85
1643560253037,9826.9219884,-66
1643560253037,9826.9219934,-85
1643560253077,9826.9219981,-82
1643560253077,9826.9220032,-56
1643560253077,9826.9220064,-66
1643560253077,9826.9220118,-73
1643560253077,9826.922015,-49
1643560253077,9826.9220202,-28
1643560253077,9826.9220234,-23
1643560253077,9826.9220284,-30
1643560253077,9826.9220314,-16
1643560253077,9826.9220347,-21
1643560253123,9826.9220397,-68
1643560253123,9826.9220429,-52
1643560253123,9826.9220473,2
1643560253123,9826.9220506,2
1643560253123,9826.9220557,-4
1643560253123,9826.9220588,4
1643560253123,9826.9220638,-7
1643560253123,9826.9220671,-4
1643560253123,9826.9220721,0
1643560253123,9826.9220767,-18
1643560253154,9826.9220817,-9
1643560253154,9826.9220848,21
1643560253154,9826.922088,9
1643560253154,9826.9220931,-23
1643560253576,9826.9220975,-30
1643560253576,9826.9221007,-28
1643560253576,9826.9221038,-40
1643560253576,9826.9221068,-33
1643560253576,9826.9221098,-11
1643560253576,9826.9221129,2
1643560253576,9826.9221159,33
1643560253576,9826.9221189,73
1643560253576,9826.9221219,80
1643560253576,9826.9221248,49
1643560253616,9826.9221278,21
1643560253616,9826.9221307,7
1643560253616,9826.9221339,-7
1643560253616,9826.9221371,-18
1643560253616,9826.9221509,-2
1643560253616,9826.9221667,11
1643560253616,9826.9221733,7
1643560253616,9826.9221769,2
1643560253616,9826.9221821,-40
1643560253616,9826.922186,-61
1643560253654,9826.9221911,142
1643560253654,9826.9221952,615
1643560253654,9826.9222006,1023
1643560253654,9826.9222038,814
1643560253654,9826.9222089,161
1643560253654,9827.6176779,-73
1643560253654,9827.6176923,37
1643560253654,9827.6176963,-33
1643560253654,9827.6177019,-111
1643560253654,9827.6177069,-61
1643560253692,9827.6177121,-68
1643560253692,9827.6177157,-104
1643560253692,9827.6177208,-85
1643560253692,9827.617724,-85
1643560253692,9827.6177274,-132
1643560253692,9827.6177325,-161
1643560253692,9827.617736,-130
1643560253692,9827.6177414,-99
1643560253692,9827.6177449,-125
1643560253692,9827.6177499,-149
1643560253728,9827.6177534,-101
1643560253728,9827.617759,-71
1643560253728,9827.6177625,-101
1643560253728,9827.6182738,-85
1643560253728,9827.6184043,-42
1643560253728,9827.6184187,-47
1643560253728,9827.6184254,-54
1643560253728,9827.618429,-42
1643560253728,9827.6184348,-23
1643560253728,9827.6184382,14
1643560253767,9827.6184436,26
1643560253767,9827.618447,18
1643560253767,9827.6184523,37
1643560253767,9827.6184556,56
1643560253767,9827.618461,59
1643560253767,9827.6184643,71
1643560253767,9827.6184676,71
1643560253767,9827.6184707,56
1643560253767,9827.6184738,68
1643560253767,9827.6184782,73
1643560253803,9827.6184813,66
1643560253803,9827.6184848,56
1643560253803,9827.6184879,18
1643560253803,9827.6184911,-30
1643560253803,9827.6184956,-61
1643560253803,9827.6184987,-104
1643560253803,9827.6185019,-142
1643560253803,9827.6185075,-161
1643560253803,9827.6185107,-177
1643560253803,9827.618514,-168
1643560253841,9827.6185197,-137
1643560253841,9827.6185231,-130
1643560253841,9827.6185285,-127
1643560253841,9827.6185318,-101
1643560254063,9827.6185373,-94
1643560254063,9827.6185405,-104
1643560254063,9827.6185436,-97
1643560254063,9827.6185467,-89
1643560254063,9827.6185497,-80
1643560254063,9827.6185529,-68
1643560254063,9827.6185564,-73
1643560254063,9827.6185594,-59
1643560254063,9827.6185624,-59
1643560254063,9827.6185655,-73
1643560254102,9827.6185685,-59
1643560254102,9827.6185717,-40
1643560254102,9827.6185756,-35
1643560254102,9827.6185787,-37
1643560254102,9827.6185817,-49
1643560254102,9827.6185848,-52
1643560254102,9827.6185888,-56
1643560254102,9827.6185922,-56
1643560254102,9827.6185977,-18
1643560254102,9827.6186011,9
1643560254137,9827.6186066,-18
1643560254137,9827.6186099,-47
1643560254137,9827.6186152,-56
1643560254137,9827.6186186,-61
1643560254137,9828.0719385,-68
1643560254137,9828.0719512,-94
1643560254137,9828.0719563,-111
1643560254137,9828.0719619,-113
1643560254137,9828.0719652,-89
1643560254137,9828.0719687,-16
1643560254175,9828.0719739,14
1643560254175,9828.0719775,-14
1643560254175,9828.0719826,-9
1643560254175,9828.0719879,0
1643560254175,9828.071993,-30
1643560254175,9828.0719971,-52
1643560254175,9828.0720021,-78
1643560254175,9828.072007,-108
1643560254175,9828.0720121,-78
1643560254175,9828.0720154,-40
1643560254214,9828.0720205,-63
1643560254214,9828.0720238,-101
1643560254214,9828.0720292,-125
1643560254214,9828.0720327,-158
1643560254214,9828.0720378,-16
1643560254214,9828.0720411,466
1643560254214,9828.0720445,963
1643560254214,9828.0720496,819
1643560254214,9828.0720545,158
1643560254214,9828.0720595,-134
1643560254253,9828.0720646,-21
1643560254253,9828.0720697,-59
1643560254253,9828.0720738,-156
1643560254253,9828.0720788,-130
1643560254253,9828.0720822,-118
1643560254253,9828.0720872,-142
1643560254253,9828.0720906,-127
1643560254253,9828.0720957,-120
1643560254253,9828.0720999,-137
1643560254253,9828.0721053,-113
1643560254292,9828.0721087,-82
1643560254292,9828.0721136,-94
1643560254292,9828.0721169,-104
1643560254292,9828.0721203,-92
1643560254292,9828.0721254,-82
1643560254292,9828.0721288,-66
1643560254292,9828.0721321,-52
1643560254292,9828.0721372,-52
1643560254292,9828.0721414,-44
1643560254292,9828.0721464,-35
1643560254332,9828.0721498,-33
1643560254332,9828.0721549,-21
1643560254332,9828.072159,7
1643560254332,9828.072164,21
1643560254747,9828.0721681,35
1643560254747,9828.0721714,73
1643560254747,9828.0721746,97
1643560254747,9828.072178,99
1643560254747,9828.0721812,111
1643560254747,9828.0721843,132
1643560254747,9828.0721874,161
1643560254747,9828.0721906,179
1643560254747,9828.0721938,172
1643560254747,9828.0721969,172
1643560254785,9828.0722002,189
1643560254785,9828.0722034,153
1643560254785,9828.0722065,92
1643560254785,9828.0722096,61
1643560254785,9828.0722146,33
1643560254785,9828.0722205,-9
1643560254785,9828.0722237,-35
1643560254785,9828.072228,-44
1643560254785,9828.0722325,-44
1643560254785,9828.072236,-49
1643560254821,9828.0722414,-59
1643560254821,9828.0722448,-56
1643560254821,9828.0722482,-54
1643560254821,9828.7664804,-54
1643560254821,9828.7664945,-30
1643560254821,9828.7664986,-16
1643560254821,9828.7665043,-40
1643560254821,9828.7665077,-49
1643560254821,9828.7665109,-21
1643560254821,9828.7665141,-14
1643560254859,9828.7665249,-40
1643560254859,9828.7665308,-42
1643560254859,9828.7665343,-33
1643560254859,9828.7665375,-35
1643560254859,9828.7665408,-11
1643560254859,9828.7665462,-2
1643560254859,9828.7665567,-49
1643560254859,9828.7665623,-61
1643560254859,9828.7665656,-23
1643560254859,9828.7665708,-28
1643560254897,9828.7665741,-52
1643560254897,9828.7665808,-30
1643560254897,9828.766584,-18
1643560254897,9828.7665871,-28
1643560254897,9828.7665903,-16
1643560254897,9828.7665934,-18
1643560254897,9828.7665975,-30
1643560254897,9828.766603,-7
1643560254897,9828.7666064,2
1643560254897,9828.7666115,-18
1643560254933,9828.7666149,-23
1643560254933,9828.7666199,-30
1643560254933,9828.7666233,-40
1643560254933,9828.7666275,-21
1643560254933,9828.7666307,11
1643560254933,9828.7666342,23
1643560254933,9828.7666372,52
1643560254933,9828.7666419,97
1643560254933,9828.7666471,75
1643560254933,9828.766656,30
1643560254970,9828.7666628,26
1643560254970,9828.7666679,0
1643560254970,9828.7666713,-33
1643560254970,9828.7666766,-16
1643560254970,9828.7666923,-9
1643560254970,9828.7667127,-28
1643560254970,9828.7667199,-16
1643560254970,9828.7667255,-52
1643560254970,9828.766729,-92
1643560254970,9828.7667342,156
1643560255006,9828.7667375,741
1643560255006,9828.7667425,1131
1643560255006,9828.7667458,729
1643560255006,9828.7667509,-14
1643560255353,9828.7667546,-196
1643560255353,9828.7667578,-78
1643560255353,9828.7667608,-132
1643560255353,9828.7667638,-134
1643560255353,9828.7667668,-42
1643560255353,9828.7667698,-47
1643560255353,9828.7667728,-97
1643560255353,9828.7667757,-87
1643560255353,9828.7667787,-66
1643560255353,9828.7667817,-54
1643560255395,9828.7667847,-42
1643560255395,9828.7667879,-42
1643560255395,9828.7667909,-49
1643560255395,9828.7667939,-42
1643560255395,9828.7667969,-18
1643560255395,9828.7668,-18
1643560255395,9828.766803,-42
1643560255395,9828.7668061,-26
1643560255395,9828.766809,23
1643560255395,9828.7668127,21
1643560255445,9828.7668157,2
1643560255445,9828.7668187,7
1643560255445,9829.3665568,18
1643560255445,9829.3665694,56
1643560255445,9829.3665731,73
1643560255445,9829.3665765,63
1643560255445,9829.3665811,101
1643560255445,9829.3665843,139
1643560255445,9829.3665894,146
1643560255445,9829.3665925,168
1643560255480,9829.3665958,194
1643560255480,9829.3666007,201
1643560255480,9829.366604,206
1643560255480,9829.3666082,208
1643560255480,9829.3666113,196
1643560255480,9829.3666143,172
1643560255480,9829.3666176,142
1643560255480,9829.3666253,101
1643560255480,9829.3666288,47
1643560255480,9829.3666331,-2
1643560255516,9829.3666363,-35
1643560255516,9829.3666394,-59
1643560255516,9829.3666424,-68
1643560255516,9829.3666458,-73
1643560255516,9829.366649,-97
1643560255516,9829.366652,-99
1643560255516,9829.366655,-85
1643560255516,9829.366658,-75
1643560255516,9829.366661,-54
1643560255516,9829.3666642,-35
1643560255549,9829.3666674,-49
1643560255549,9829.3666727,-78
1643560255549,9829.366676,-68
1643560255549,9829.3666811,-28
1643560255549,9829.3666844,-30
1643560255549,9829.3666894,-59
1643560255549,9829.3666927,-42
1643560255549,9829.3666977,-11
1643560255549,9829.366701,-11
1643560255549,9829.366705,-2
1643560255585,9829.3667081,11
1643560255585,9829.3667111,2
1643560255585,9829.3667142,-9
1643560255585,9829.3667189,-4
1643560255585,9829.366724,11
1643560255585,9829.3667273,18
1643560255585,9829.366733,7
1643560255585,9829.3667364,4
1643560255585,9829.3667424,21
1643560255585,9829.3667456,18
1643560255621,9829.3667513,-4
1643560255621,9829.3667545,7
1643560255621,9829.3667577,40
1643560255621,9829.3667625,9
1643560255787,9829.3667658,-30
1643560255787,9829.366769,7
1643560255787,9829.3667721,52
1643560255787,9829.3667751,52
1643560255787,9829.3667781,78
1643560255787,9829.3667811,137
1643560255787,9829.3667841,151
1643560255787,9829.3667871,116
1643560255787,9829.3667901,92
1643560255787,9829.3667932,78
1643560255823,9829.3667963,42
1643560255823,9829.3667992,30
1643560255823,9829.3668034,49
1643560255823,9829.3668088,33
1643560255823,9829.366812,7
1643560255823,9829.3668177,7
1643560255823,9829.3668208,-33
1643560255823,9829.366824,-66
1643560255823,9829.3668289,156
1643560255823,9829.3668322,696
1643560255873,9829.366837,1134
1643560255873,9829.8162431,843
1643560255873,9829.8162552,139
1643560255873,9829.81626,-49
1643560255873,9829.8162654,73
1643560255873,9829.8162684,-26
1643560255873,9829.8162716,-118
1643560255873,9829.8162766,-63
1643560255873,9829.8162797,-44
1643560255873,9829.8162829,-85
1643560255910,9829.8162871,-99
1643560255910,9829.8162903,-94
1643560255910,9829.8162955,-99
1643560255910,9829.8163004,-99
1643560255910,9829.8163052,-89
1643560255910,9829.81631,-73
1643560255910,9829.8163148,-68
1643560255910,9829.8163196,-101
1643560255910,9829.8163246,-118
1643560255910,9829.8163276,-85
1643560255945,9829.8163309,-85
1643560255945,9829.8163349,-92
1643560255945,9829.8163381,-56
1643560255945,9829.816343,-35
1643560255945,9829.816346,-54
1643560255945,9829.8163492,-49
1643560255945,9829.816354,-30
1643560255945,9829.8163587,-23
1643560255945,9829.8163635,-9
1643560255945,9829.8163667,14
1643560255975,9829.8163716,30
1643560255975,9829.8163763,35
1643560255975,9829.8163811,52
1643560255975,9829.8163841,78
1643560255975,9829.8163873,82
1643560255975,9829.8163921,75
1643560255975,9829.8163973,80
1643560255975,9829.816402,82
1643560255975,9829.8164053,80
1643560255975,9829.8164084,73
1643560256005,9829.8164134,44
1643560256005,9829.8164179,4
1643560256005,9829.8164227,-35
1643560256005,9829.8164259,-78
1643560256005,9829.8164309,-108
1643560256005,9829.8164353,-106
1643560256005,9829.8164402,-101
1643560256005,9829.816444,-106
1643560256005,9829.8164488,-104
1643560256005,9829.8164536,-94
1643560256035,9829.8164588,-78
1643560256035,9829.8164634,-68
1643560256035,9829.8164683,-68
1643560256035,9829.8164718,-66
1643560256288,9829.8164765,-75
1643560256288,9829.8164796,-89
1643560256288,9829.8164826,-87
1643560256288,9829.8164857,-66
1643560256288,9829.8164887,-49
1643560256288,9829.8164916,-54
1643560256288,9829.8164945,-59
1643560256288,9829.8164975,-52
1643560256288,9829.8165005,-54
1643560256288,9829.8165035,-52
1643560256326,9829.8165064,-33
1643560256326,9829.8165094,-35
1643560256326,9829.8165125,-40
1643560256326,9829.8165156,-9
1643560256326,9829.8165185,2
1643560256326,9829.8165216,-16
1643560256326,9829.8165246,-23
1643560256326,9829.8165277,-28
1643560256326,9829.8165328,-35
1643560256326,9829.8165376,-21
1643560256368,9830.321913,0
1643560256368,9830.3219251,-2
1643560256368,9830.3219302,-28
1643560256368,9830.3219356,-42
1643560256368,9830.321939,-40
1643560256368,9830.321944,-44
1643560256368,9830.3219474,-35
1643560256368,9830.3219523,-2
1643560256368,9830.3219556,0
1643560256368,9830.321961,-11
1643560256405,9830.3219643,21
1643560256405,9830.3219692,47
1643560256405,9830.3219726,35
1643560256405,9830.3219774,21
1643560256405,9830.3219807,0
1643560256405,9830.3219855,-37
1643560256405,9830.3219896,-73
1643560256405,9830.3219945,-82
1643560256405,9830.3219994,-61
1643560256405,9830.3220043,-47
1643560256445,9830.3220077,-66
1643560256445,9830.3220125,-97
1643560256445,9830.3220158,-120
1643560256445,9830.3220207,9
1643560256445,9830.322024,464
1643560256445,9830.3220288,1001
1643560256445,9830.3220324,959
1643560256445,9830.3220373,286
1643560256445,9830.3220405,-108
1643560256445,9830.3220453,-2
1643560256485,9830.3220486,7
1643560256485,9830.3220534,-108
1643560256485,9830.3220566,-111
1643560256485,9830.322061,-101
1643560256485,9830.3220643,-139
1643560256485,9830.3220691,-123
1643560256485,9830.3220722,-82
1643560256485,9830.3220755,-92
1643560256485,9830.3220804,-92
1643560256485,9830.3220836,-80
1643560256528,9830.3220884,-111
1643560256528,9830.3220924,-118
1643560256528,9830.3220978,-66
1643560256528,9830.3221012,-42
1643560256528,9830.3221067,-61
1643560256528,9830.3221102,-59
1643560256528,9830.3221153,-33
1643560256528,9830.3221184,-23
1643560256528,9830.3221216,-21
1643560256528,9830.3221248,-26
1643560256567,9830.3221291,-30
1643560256567,9830.3221324,-4
1643560256567,9830.3221373,18
1643560256567,9830.3221404,18
1643560256911,9830.3221437,28
1643560256911,9830.3221469,71
1643560256911,9830.32215,118
1643560256911,9830.322153,125
1643560256911,9830.322156,111
1643560256911,9830.322159,130
1643560256911,9830.3221622,168
1643560256911,9830.3221652,158
1643560256911,9830.3221681,134
1643560256911,9830.3221711,144
1643560256947,9830.3221741,149
1643560256947,9830.3221771,118
1643560256947,9830.3221801,54
1643560256947,9830.3221832,2
1643560256947,9830.3221862,-4
1643560256947,9830.3221892,-18
1643560256947,9830.3221923,-44
1643560256947,9830.3221953,-44
1643560256947,9830.3221983,-37
1643560256947,9830.9211022,-42
1643560256986,9830.9211174,-56
1643560256986,9830.9211213,-71
1643560256986,9830.9211268,-56
1643560256986,9830.9211302,-30
1643560256986,9830.9211354,-26
1643560256986,9830.9211389,-33
1643560256986,9830.9211449,-42
1643560256986,9830.9211483,-44
1643560256986,9830.9211543,-42
1643560256986,9830.9211577,-37
1643560257028,9830.9211628,-16
1643560257028,9830.9211663,4
1643560257028,9830.9211715,-18
1643560257028,9830.9211749,-66
1643560257028,9830.9211801,-66
1643560257028,9830.9211834,-23
1643560257028,9830.9211886,-9
1643560257028,9830.921192,-21
1643560257028,9830.921198,-30
1643560257028,9830.9212013,-30
1643560257062,9830.9212065,-30
1643560257062,9830.9212099,-37
1643560257062,9830.9212149,-18
1643560257062,9830.9212189,16
1643560257062,9830.9212223,16
1643560257062,9830.9212279,2
1643560257062,9830.9212318,7
1643560257062,9830.921237,-2
1643560257062,9830.9212404,-21
1643560257062,9830.9212455,-23
1643560257100,9830.9212489,-4
1643560257100,9830.921254,-7
1643560257100,9830.9212573,-33
1643560257100,9830.9212623,-23
1643560257100,9830.9212656,4
1643560257100,9830.9212713,21
1643560257100,9830.921275,42
1643560257100,9830.921281,59
1643560257100,9830.9212844,73
1643560257100,9830.9212895,75
1643560257137,9830.9212929,44
1643560257137,9830.9212981,18
1643560257137,9830.9213014,14
1643560257137,9830.9213072,7
1643560257137,9830.9213107,2
1643560257137,9830.9213159,2
1643560257137,9830.9213199,-4
1643560257137,9830.9213255,-11
1643560257137,9830.9213292,-49
1643560257137,9830.9213343,-80
1643560257175,9830.9213384,108
1643560257175,9830.9213438,603
1643560257175,9830.9213471,1051
1643560257175,9830.9213522,847
1643560257487,9830.9213556,146
1643560257487,9830.9213588,-142
1643560257487,9830.9213619,0
1643560257487,9830.921365,-18
1643560257487,9830.9213943,-94
1643560257487,9830.921413,-42
1643560257487,9830.9214178,-35
1643560257487,9830.9214219,-78
1643560257487,9830.9214251,-71
1643560257487,9830.9214282,-47
1643560257525,9830.9214313,-44
1643560257525,9830.9214345,-47
1643560257525,9830.9214375,-44
1643560257525,9830.9214407,-28
1643560257525,9830.921444,-11
1643560257525,9830.9214498,-16
1643560257525,9830.9214531,-18
1643560257525,9830.9214583,-2
1643560257525,9831.5176287,11
1643560257525,9831.5176413,21
1643560257568,9831.5176452,35
1643560257568,9831.5176506,47
1643560257568,9831.5176539,56
1643560257568,9831.5176588,71
1643560257568,9831.5176621,78
1643560257568,9831.5176674,78
1643560257568,9831.5176706,106
1643560257568,9831.5176755,144
1643560257568,9831.5176787,156
1643560257568,9831.5176837,158
1643560257603,9831.517687,153
1643560257603,9831.5176919,165
1643560257603,9831.5176952,203
1643560257603,9831.5176999,224
1643560257603,9831.5177032,215
1643560257603,9831.5177081,198
1643560257603,9831.5177114,168
1643560257603,9831.5177163,139
1643560257603,9831.5177195,123
1643560257603,9831.5177238,80
1643560257641,9831.5177272,28
1643560257641,9831.5177319,11
1643560257641,9831.5177351,0
1643560257641,9831.5177384,-28
1643560257641,9831.5177435,-54
1643560257641,9831.5177467,-68
1643560257641,9831.5177498,-56
1643560257641,9831.517755,-44
1643560257641,9831.5177582,-56
1643560257641,9831.5177633,-63
1643560257677,9831.5177664,-37
1643560257677,9831.5177696,-18
1643560257677,9831.5178541,-26
1643560257677,9831.5178668,-26
1643560257677,9831.5178728,-26
1643560257677,9831.5178782,-30
1643560257677,9831.5178816,-30
1643560257677,9831.5178866,-23
1643560257677,9831.5178899,-9
1643560257677,9831.5178948,-2
1643560257712,9831.5178981,-7
1643560257712,9831.5179032,4
1643560257712,9831.5179065,18
1643560257712,9831.5179116,11
1643560257712,9831.5179149,-4
1643560257712,9831.5179205,-2
1643560257712,9831.5179238,14
1643560257712,9831.5179295,18
1643560257712,9831.5179328,21
1643560257712,9831.5179378,26
1643560257747,9831.5179411,18
1643560257747,9831.5179461,21
1643560257747,9831.5179493,33
1643560257747,9831.5179544,23
1643560257993,9831.5179578,14
1643560257993,9831.5179608,9
1643560257993,9831.5179638,-2
1643560257993,9831.5179667,0
1643560257993,9831.5179697,7
1643560257993,9831.5179727,-16
1643560257993,9831.5179756,-26
1643560257993,9831.5179785,9
1643560257993,9831.5179815,28
1643560257993,9831.5179845,44
1643560258032,9831.5179874,89
1643560258032,9831.5179903,106
1643560258032,9831.5179932,85
1643560258032,9831.5179961,54
1643560258032,9831.5179991,26
1643560258032,9831.518002,14
1643560258032,9831.518005,30
1643560258032,9832.0215453,40
1643560258032,9832.0215592,11
1643560258032,9832.0215633,-14
1643560258067,9832.0215688,4
1643560258067,9832.0215722,-7
1643560258067,9832.0215773,-23
1643560258067,9832.0215837,227
1643560258067,9832.0215889,817
1643560258067,9832.0215921,1221
1643560258067,9832.0215952,805
1643560258067,9832.0215985,40
1643560258067,9832.021603,-142
1643560258067,9832.021606,-35
1643560258103,9832.021609,-87
1643560258103,9832.0216121,-75
1643560258103,9832.0216151,4
1643560258103,9832.0216181,-18
1643560258103,9832.0216211,-63
1643560258103,9832.0216243,-40
1643560258103,9832.0216274,-23
1643560258103,9832.0216305,-28
1643560258103,9832.0216335,-16
1643560258103,9832.0216366,-9
1643560258140,9832.0216396,-11
1643560258140,9832.0216428,-42
1643560258140,9832.0216457,-52
1643560258140,9832.0216487,-2
1643560258140,9832.0216517,18
1643560258140,9832.0216547,0
1643560258140,9832.0216577,-2
1643560258140,9832.0216608,14
1643560258140,9832.0216637,26
1643560258140,9832.0216667,30
1643560258178,9832.0216697,37
1643560258178,9832.0216728,59
1643560258178,9832.0216758,66
1643560258178,9832.0216793,56
1643560258178,9832.0216822,99
1643560258178,9832.0216853,146
1643560258178,9832.0216886,146
1643560258178,9832.0216915,175
1643560258178,9832.0216945,224
1643560258178,9832.0216983,232
1643560258216,9832.0217013,203
1643560258216,9832.0217043,177
1643560258216,9832.0217074,208
1643560258216,9832.0217104,234
1643560258216,9832.0217134,182
1643560258216,9832.0217164,120
1643560258216,9832.0217194,113
1643560258216,9832.0217224,97
1643560258216,9832.0217254,40
1643560258216,9832.0217283,7
1643560258253,9832.0217313,4
1643560258253,9832.0217343,7
1643560258253,9832.0217373,9
1643560258253,9832.0217403,18
1643560258592,9832.0217435,0
1643560258592,9832.0217465,-52
1643560258592,9832.0217495,-47
1643560258592,9832.0217525,-4
1643560258592,9832.0217557,-16
1643560258592,9832.0217587,-28
1643560258592,9832.0217625,-4
1643560258592,9832.0217655,4
1643560258592,9832.0217685,-4
1643560258592,9832.0217715,-16
1643560258626,9832.0217749,-28
1643560258626,9832.0217787,-14
1643560258626,9832.0217817,2
1643560258626,9832.0217854,-4
1643560258626,9832.0217884,16
1643560258626,9832.0217914,44
1643560258626,9832.6167396,30
1643560258626,9832.6167523,23
1643560258626,9832.616756,33
1643560258626,9832.616762,21
1643560258655,9832.6167654,16
1643560258655,9832.6167707,28
1643560258655,9832.616774,28
1643560258655,9832.6167791,35
1643560258655,9832.6167824,28
1643560258655,9832.6167874,2
1643560258655,9832.6167906,7
1643560258655,9832.6167956,-9
1643560258655,9832.616799,-40
1643560258655,9832.6168039,-33
1643560258687,9832.6168082,-37
1643560258687,9832.616813,-61
1643560258687,9832.6168163,-44
1643560258687,9832.6168212,2
1643560258687,9832.6168244,23
1643560258687,9832.6168293,37
1643560258687,9832.6168324,73
1643560258687,9832.6168373,61
1643560258687,9832.6168405,-4
1643560258687,9832.6168454,-30
1643560258740,9832.6168488,-16
1643560258740,9832.616854,-26
1643560258740,9832.6168573,-18
1643560258740,9832.6168623,2
1643560258740,9832.6168656,-23
1643560258740,9832.6168705,-56
1643560258740,9832.6168753,-82
1643560258740,9832.6168801,-71
1643560258740,9832.6168834,123
1643560258740,9832.6168884,592
1643560258781,9832.6169055,1015
1643560258781,9832.6169189,795
1643560258781,9832.6169252,156
1643560258781,9832.6169289,-59
1643560258781,9832.6169339,21
1643560258781,9832.6169373,-52
1643560258781,9832.6169423,-101
1643560258781,9832.6169456,-82
1643560258781,9832.6169504,-113
1643560258781,9832.6169536,-99
1643560258816,9832.6169569,-75
1643560258816,9832.6169618,-113
1643560258816,9832.6169653,-116
1643560258816,9832.6169701,-82
1643560258816,9832.6169735,-75
1643560258816,9832.6169783,-75
1643560258816,9832.6169816,-82
1643560258816,9832.6169864,-80
1643560258816,9832.6169897,-54
1643560258816,9832.6169946,-40
1643560258844,9832.6169979,-40
1643560258844,9832.6170028,-37
1643560258844,9832.6170062,-40
1643560258844,9832.6170113,-33
1643560259029,9832.6170146,-4
1643560259029,9832.6170178,2
1643560259029,9832.6170208,-21
1643560259029,9832.6170238,-7
1643560259029,9832.6170269,35
1643560259029,9832.6170299,56
1643560259029,9832.617033,80
1643560259029,9832.617036,106
1643560259029,9832.617039,116
1643560259029,9832.617042,111
1643560259061,9832.617045,108
1643560259061,9832.6170481,130
1643560259061,9832.6170512,163
1643560259061,9832.6170544,153
1643560259061,9832.6170596,113
1643560259061,9833.0720599,85
1643560259061,9833.0720716,63
1643560259061,9833.0720751,33
1643560259061,9833.0720782,4
1643560259061,9833.0720814,-30
1643560259091,9833.0720844,-71
1643560259091,9833.0720874,-80
1643560259091,9833.0720905,-78
1643560259091,9833.0720935,-106
1643560259091,9833.0720964,-125
1643560259091,9833.0720995,-113
1643560259091,9833.0721025,-97
1643560259091,9833.0721054,-80
1643560259091,9833.0721085,-89
1643560259091,9833.0721115,-125
1643560259124,9833.0721144,-127
1643560259124,9833.0721174,-101
1643560259124,9833.0721204,-101
1643560259124,9833.0721235,-106
1643560259124,9833.0721265,-85
1643560259124,9833.0721296,-78
1643560259124,9833.0721325,-87
1643560259124,9833.0721354,-71
1643560259124,9833.0721384,-56
1643560259124,9833.0721413,-66
1643560259157,9833.0721444,-63
1643560259157,9833.0721473,-47
1643560259157,9833.0722184,-44
1643560259157,9833.0722839,-52
1643560259157,9833.0722883,-28
1643560259157,9833.0723121,-14
1643560259157,9833.0723449,-33
1643560259157,9833.0724312,-52
1643560259157,9833.0724382,-44
1643560259157,9833.0724418,-28
1643560259190,9833.072445,-26
1643560259190,9833.0724481,-35
1643560259190,9833.0724511,-28
1643560259190,9833.0724541,-16
1643560259190,9833.0724572,-28
1643560259190,9833.0724603,-40
1643560259190,9833.0724634,-37
1643560259190,9833.0724664,-47
1643560259190,9833.0724694,-73
1643560259190,9833.0724725,-49
1643560259224,9833.0724756,2
1643560259224,9833.0724787,16
1643560259224,9833.0724817,9
1643560259224,9833.0724847,37
1643560259224,9833.0724878,66
1643560259224,9833.0724973,26
1643560259224,9833.0725011,-35
1643560259224,9833.0725043,-47
1643560259224,9833.0725073,-40
1643560259224,9833.0725285,-40
1643560259258,9833.0725398,-28
1643560259258,9833.0725515,-16
1643560259258,9833.0725562,-16
1643560259258,9833.0725594,-28
1643560259700,9833.0725624,-75
1643560259700,9833.0725836,-35
1643560259700,9833.0726182,305
1643560259700,9833.0726229,847
1643560259700,9833.0726261,1013
1643560259700,9833.0726294,464
1643560259700,9833.0726326,-68
1643560259700,9833.0726408,-26
1643560259700,9833.0726625,63
1643560259700,9833.0726666,-44
1643560259730,9833.0726698,-85
1643560259730,9833.0726728,-66
1643560259730,9833.0726758,-92
1643560259730,9833.0726789,-101
1643560259730,9833.7173658,-73
1643560259730,9833.7173793,-63
1643560259730,9833.7173846,-61
1643560259730,9833.7173903,-35
1643560259730,9833.7173938,0
1643560259730,9833.7173992,4
1643560259760,9833.7174027,-26
1643560259760,9833.7174077,-61
1643560259760,9833.7174112,-61
1643560259760,9833.7174164,-52
1643560259760,9833.7174199,-47
1643560259760,9833.7174249,-18
1643560259760,9833.7174284,2
1643560259760,9833.7174342,-9
1643560259760,9833.7174376,11
1643560259760,9833.7174436,44
1643560259796,9833.7174475,35
1643560259796,9833.7174526,49
1643560259796,9833.717456,87
1643560259796,9833.7174613,89
1643560259796,9833.7174647,101
1643560259796,9833.7174697,142
1643560259796,9833.7174732,156
1643560259796,9833.7174783,175
1643560259796,9833.7175166,198
1643560259796,9833.7176136,194
1643560259828,9833.7176284,184
1643560259828,9833.7176358,189
1643560259828,9833.7176396,187
1643560259828,9833.7176442,156
1643560259828,9833.7176474,101
1643560259828,9833.7176507,71
1643560259828,9833.7176539,47
1643560259828,9833.717657,16
1643560259828,9833.7176605,-9
1643560259828,9833.7176659,-35
1643560259861,9833.7176693,-42
1643560259861,9833.7176744,-16
1643560259861,9833.7176779,-2
1643560259861,9833.7176819,-11
1643560259861,9833.7176852,-26
1643560259861,9833.7176886,-40
1643560259861,9833.717694,-40
1643560259861,9833.7176974,-23
1643560259861,9833.7177034,-9
1643560259861,9833.717707,-11
1643560259893,9833.7177131,-7
1643560259893,9833.7177165,21
1643560259893,9833.7177217,16
1643560259893,9833.7177252,-11
1643560259893,9833.7177305,2
1643560259893,9833.717734,23
1643560259893,9833.7177391,18
1643560259893,9833.7177426,26
1643560259893,9833.7177478,21
1643560259893,9833.7177513,-2
1643560259924,9833.7177568,16
1643560259924,9833.7177602,26
1643560259924,9833.7177668,7
1643560259924,9833.7177703,21
1643560260293,9833.7177756,35
1643560260293,9833.7177788,30
1643560260293,9833.7177828,44
1643560260293,9833.7177861,35
1643560260293,9833.7177893,18
1643560260293,9833.7177926,23
1643560260293,9833.7177958,16
1643560260293,9833.7177989,18
1643560260293,9833.717802,40
1643560260293,9833.7178052,16
1643560260325,9833.7178083,-33
1643560260325,9833.7178114,-42
1643560260325,9833.7178146,-11
1643560260325,9834.3205671,14
1643560260325,9834.3205807,21
1643560260325,9834.3205847,33
1643560260325,9834.3205901,78
1643560260325,9834.3205935,101
1643560260325,9834.3205985,59
1643560260325,9834.3206019,23
1643560260359,9834.3206069,14
1643560260359,9834.3206102,7
1643560260359,9834.3206152,0
1643560260359,9834.320619,-16
1643560260359,9834.320624,-23
1643560260359,9834.3206273,-21
1643560260359,9834.3206323,-47
1643560260359,9834.3206356,-101
1643560260359,9834.3206406,-61
1643560260359,9834.3206439,258
1643560260394,9834.3206489,819
1643560260394,9834.3206522,1091
1643560260394,9834.3206572,573
1643560260394,9834.3206605,-106
1643560260394,9834.3206659,-175
1643560260394,9834.3206692,-71
1643560260394,9834.3206743,-125
1643560260394,9834.3206775,-106
1643560260394,9834.3206824,-63
1643560260394,9834.3206856,-82
1643560260424,9834.3206907,-78
1643560260424,9834.3206938,-56
1643560260424,9834.3206989,-66
1643560260424,9834.3207021,-68
1643560260424,9834.3207071,-54
1643560260424,9834.3207103,-42
1643560260424,9834.3207153,-35
1643560260424,9834.3207185,-26
1643560260424,9834.3207235,-16
1643560260424,9834.3207268,-9
1643560260458,9834.3207317,-14
1643560260458,9834.320735,-9
1643560260458,9834.32074,7
1643560260458,9834.3207432,11
1643560260458,9834.3207474,21
1643560260458,9834.3207505,52
1643560260458,9834.3207535,66
1643560260458,9834.3207565,52
1643560260458,9834.3207598,66
1643560260458,9834.3207628,116
1643560260493,9834.3207657,134
1643560260493,9834.3207687,125
1643560260493,9834.3207716,158
1643560260493,9834.3207745,196
1643560260493,9834.3207775,179
1643560260493,9834.3207805,172
1643560260493,9834.3207834,208
1643560260493,9834.3207865,222
1643560260493,9834.3207895,208
1643560260493,9834.3207925,189
1643560260525,9834.3207956,158
1643560260525,9834.3207986,132
1643560260525,9834.3208016,97
1643560260525,9834.3208046,30
1643560260792,9834.3208076,-14
1643560260792,9834.3208106,-18
1643560260792,9834.3208169,-28
1643560260792,9834.3208199,-52
1643560260792,9834.3208228,-49
1643560260792,9834.3208465,-37
1643560260792,9834.3208543,-52
1643560260792,9834.3211384,-75
1643560260792,9834.3211443,-73
1643560260792,9834.3211478,-61
1643560260824,9834.321151,-59
1643560260824,9834.321154,-54
1643560260824,9834.8218169,-44
1643560260824,9834.8218313,-49
1643560260824,9834.8218355,-49
1643560260824,9834.821841,-44
1643560260824,9834.8218445,-47
1643560260824,9834.8218498,-30
1643560260824,9834.8218533,-9
1643560260824,9834.8218589,-9
1643560260857,9834.8218624,-16
1643560260857,9834.8218676,-28
1643560260857,9834.821871,-37
1643560260857,9834.8218762,-28
1643560260857,9834.8218797,-14
1643560260857,9834.8218852,-18
1643560260857,9834.8218886,-40
1643560260857,9834.8218939,-42
1643560260857,9834.8218973,-23
1643560260857,9834.8219024,-18
1643560260892,9834.8219058,-18
1643560260892,9834.8219111,-16
1643560260892,9834.8219145,-18
1643560260892,9834.8219198,-26
1643560260892,9834.8219233,-59
1643560260892,9834.8219285,-94
1643560260892,9834.821932,-80
1643560260892,9834.8219371,-47
1643560260892,9834.8219406,-28
1643560260892,9834.8219457,-26
1643560260925,9834.8219491,-14
1643560260925,9834.8219544,37
1643560260925,9834.8219578,66
1643560260925,9834.8219629,9
1643560260925,9834.8219666,-33
1643560260925,9834.8219719,-16
1643560260925,9834.8219753,-14
1643560260925,9834.8219806,-33
1643560260925,9834.8219841,-35
1643560260925,9834.8219894,-26
1643560260958,9834.8219928,-23
1643560260958,9834.821998,-44
1643560260958,9834.8220015,-92
1643560260958,9834.8220068,-11
1643560260958,9834.8220103,383
1643560260958,9834.8220155,959
1643560260958,9834.8220189,1070
1643560260958,9834.8220245,383
1643560260958,9834.8220279,-177
1643560260958,9834.8220332,-89
1643560260991,9834.8220366,-28
1643560260991,9834.8220409,-127
1643560260991,9834.8220443,-101
1643560260991,9834.8220495,-89
1643560260991,9834.8220529,-123
1643560260991,9834.8220581,-80
1643560260991,9834.8220614,-61
1643560260991,9834.8220664,-89
1643560260991,9834.8220699,-71
1643560260991,9834.8220749,-42
1643560261040,9834.8220783,-61
1643560261040,9834.8220833,-71
1643560261040,9834.8220866,-61
1643560261040,9834.8220917,-42
1643560261442,9834.8220951,-28
1643560261442,9834.8220986,-42
1643560261442,9834.8221018,-52
1643560261442,9834.8221051,-35
1643560261442,9834.8221083,-21
1643560261442,9834.8221114,-26
1643560261442,9834.8221146,-30
1643560261442,9834.8221176,-11
1643560261442,9834.8221206,26
1643560261442,9834.8221239,42
1643560261479,9834.8221272,52
1643560261479,9835.4671628,71
1643560261479,9835.467174,87
1643560261479,9835.4671777,113
1643560261479,9835.4671812,137
1643560261479,9835.4671842,149
1643560261479,9835.4671874,177
1643560261479,9835.4671904,201
1643560261479,9835.4671935,184
1643560261479,9835.4671966,151
1643560261515,9835.4671996,120
1643560261515,9835.4672027,94
1643560261515,9835.467206,47
1643560261515,9835.4672101,-4
1643560261515,9835.4672154,-28
1643560261515,9835.4672186,-47
1643560261515,9835.4672217,-87
1643560261515,9835.4672247,-111
1643560261515,9835.4672278,-111
1643560261515,9835.4672309,-113
1643560261548,9835.467234,-113
1643560261548,9835.4672371,-113
1643560261548,9835.4672403,-125
1643560261548,9835.4672446,-130
1643560261548,9835.4672476,-113
1643560261548,9835.4672507,-104
1643560261548,9835.4672537,-94
1643560261548,9835.4672567,-80
1643560261548,9835.4672598,-82
1643560261548,9835.4672628,-80
1643560261580,9835.4672658,-61
1643560261580,9835.4672689,-61
1643560261580,9835.4672721,-78
1643560261580,9835.4672753,-59
1643560261580,9835.4672798,-35
1643560261580,9835.4672828,-44
1643560261580,9835.4672858,-40
1643560261580,9835.4672888,-28
1643560261580,9835.4672918,-42
1643560261580,9835.4672953,-37
1643560261609,9835.4672983,-14
1643560261609,9835.4673013,-16
1643560261609,9835.4673043,-40
1643560261609,9835.4673075,-42
1643560261609,9835.4673106,-47
1643560261609,9835.4673138,-63
1643560261609,9835.4673181,-63
1643560261609,9835.4673212,-40
1643560261609,9835.4673241,-54
1643560261609,9835.4673273,-101
1643560261636,9835.4673315,-106
1643560261636,9835.4673356,-92
1643560261636,9835.4673388,-101
1643560261636,9835.4673446,-87
1643560261636,9835.4673479,-42
1643560261636,9835.4673529,-23
1643560261636,9835.467356,-16
1643560261636,9835.4673593,26
1643560261636,9835.4673642,42
1643560261636,9835.4673692,-21
1643560261665,9835.4673742,-78
1643560261665,9835.4673773,-59
1643560261665,9835.4673825,-35
1643560261665,9835.4673856,-56
1643560261929,9835.467389,-68
1643560261929,9835.4673923,-54
1643560261929,9835.4673954,-59
1643560261929,9835.4673985,-92
1643560261929,9835.4674015,-139
1643560261929,9835.4674045,-71
1643560261929,9835.4674076,303
1643560261929,9835.4674106,857
1643560261929,9835.4674136,970
1643560261929,9835.4674166,362
1643560261962,9835.9702623,-137
1643560261962,9835.9702855,-49
1643560261962,9835.9702927,9
1643560261962,9835.9702974,-123
1643560261962,9835.970301,-130
1643560261962,9835.9703062,-89
1643560261962,9835.9703094,-130
1643560261962,9835.9703128,-151
1643560261962,9835.9703185,-123
1643560261962,9835.970322,-106
1643560261995,9835.9703271,-125
1643560261995,9835.9703305,-144
1643560261995,9835.9703357,-132
1643560261995,9835.9703392,-123
1643560261995,9835.9703443,-130
1643560261995,9835.9703477,-123
1643560261995,9835.9703528,-106
