unixTime,lslTime,ECG
1643558982209,8555.7084599,-35
1643558982209,8556.1629132,-37
1643558982209,8556.1629258,-30
1643558982209,8556.1629293,-33
1643558982209,8556.1629325,-30
1643558982209,8556.1629375,-26
1643558982209,8556.1629406,-26
1643558982209,8556.1629438,-35
1643558982209,8556.1629485,-49
1643558982209,8556.1629516,-54
1643558982228,8556.1629562,-47
1643558982228,8556.162961,-47
1643558982228,8556.1629657,-49
1643558982228,8556.1629695,-47
1643558982228,8556.1629742,-44
1643558982228,8556.1629773,-47
1643558982228,8556.1629819,-44
1643558982228,8556.162985,-40
1643558982228,8556.1629901,-40
1643558982228,8556.1629931,-40
1643558982252,8556.1629962,-47
1643558982252,8556.1630009,-52
1643558982252,8556.1630038,-47
1643558982252,8556.1630069,-44
1643558982252,8556.1630115,-47
1643558982252,8556.1630162,-42
1643558982252,8556.1630335,-40
1643558982252,8556.1630386,-44
1643558982252,8556.1630418,-44
1643558982252,8556.1630465,-37
1643558982272,8556.1630511,-35
1643558982272,8556.1630558,-35
1643558982272,8556.1630587,-30
1643558982272,8556.163062,-30
1643558982272,8556.1630671,-30
1643558982272,8556.1630701,-28
1643558982272,8556.163075,-26
1643558982272,8556.1630797,-23
1643558982272,8556.1630848,-21
1643558982272,8556.1630879,-18
1643558982295,8556.163091,-21
1643558982295,8556.1630949,-18
1643558982295,8556.163098,-11
1643558982295,8556.1631028,-9
1643558982671,8556.1631067,-4
1643558982671,8556.1631098,-2
1643558982671,8556.1631127,-2
1643558982671,8556.1631157,0
1643558982671,8556.1631186,0
1643558982671,8556.1631215,2
1643558982671,8556.1631244,4
1643558982671,8556.1631273,7
1643558982671,8556.1631302,0
1643558982671,8556.1631331,-11
1643558982694,8556.163136,-16
1643558982694,8556.1631388,-18
1643558982694,8556.1631417,-14
1643558982694,8556.1631446,21
1643558982694,8556.1631476,71
1643558982694,8556.1631505,87
1643558982694,8556.1631534,59
1643558982694,8556.1631566,47
1643558982694,8556.1631615,59
1643558982694,8556.1631645,35
1643558982717,8556.1631675,11
1643558982717,8556.1631722,18
1643558982717,8556.1631768,9
1643558982717,8556.1631815,-9
1643558982717,8556.1631845,-7
1643558982717,8556.1631894,2
1643558982717,8556.1631941,-4
1643558982717,8556.1631992,-42
1643558982717,8556.1632023,-63
1643558982717,8556.163207,132
1643558982739,8556.7129599,561
1643558982739,8556.7129723,840
1643558982739,8556.7129777,594
1643558982739,8556.7129828,153
1643558982739,8556.7129867,61
1643558982739,8556.7129915,101
1643558982739,8556.7129951,-14
1643558982739,8556.7130001,-108
1643558982739,8556.7130034,-118
1643558982739,8556.7130087,-149
1643558982763,8556.713012,-175
1643558982763,8556.7130167,-168
1643558982763,8556.7130199,-168
1643558982763,8556.7130249,-170
1643558982763,8556.713028,-168
1643558982763,8556.7130312,-168
1643558982763,8556.7130361,-172
1643558982763,8556.7130405,-175
1643558982763,8556.7130454,-168
1643558982763,8556.7130488,-161
1643558982789,8556.7130521,-158
1643558982789,8556.7130597,-149
1643558982789,8556.7130628,-139
1643558982789,8556.7130662,-127
1643558982789,8556.7130706,-116
1643558982789,8556.7130736,-111
1643558982789,8556.7130766,-99
1643558982789,8556.7130795,-87
1643558982789,8556.7130825,-78
1643558982789,8556.7130854,-61
1643558982805,8556.7130884,-42
1643558982805,8556.7130915,-33
1643558982805,8556.7130945,-18
1643558982805,8556.7131139,-4
1643558982805,8556.7131199,0
1643558982805,8556.7131232,4
1643558982805,8556.713128,14
1643558982805,8556.7131312,18
1643558982805,8556.7131343,21
1643558982805,8556.7131373,26
1643558982828,8556.7131402,26
1643558982828,8556.7131432,16
1643558982828,8556.7131461,-2
1643558982828,8556.713149,-28
1643558983339,8556.713152,-56
1643558983339,8556.7131563,-73
1643558983339,8556.7131593,-85
1643558983339,8556.7131623,-94
1643558983339,8556.7131653,-94
1643558983339,8556.7131683,-97
1643558983339,8556.7131712,-104
1643558983339,8556.7131742,-104
1643558983339,8556.7131771,-92
1643558983339,8556.71318,-87
1643558983362,8556.713183,-80
1643558983362,8556.713186,-71
1643558983362,8556.713189,-68
1643558983362,8556.7131919,-66
1643558983362,8556.7131948,-44
1643558983362,8556.7131978,-30
1643558983362,8556.7132012,-30
1643558983362,8556.7132044,-21
1643558983362,8556.7132096,-4
1643558983362,8556.7132127,4
1643558983384,8556.7132176,4
1643558983384,8556.7132206,16
1643558983384,8556.7132255,37
1643558983384,8556.7132285,47
1643558983384,8556.7132317,59
1643558983384,8556.7132366,73
1643558983384,8556.7132397,78
1643558983384,8556.7132447,75
1643558983384,8556.7132478,78
1643558983384,8557.3616186,87
1643558983405,8557.3616344,94
1643558983405,8557.3616386,97
1643558983405,8557.3616439,80
1643558983405,8557.361647,61
1643558983405,8557.3616502,68
1643558983405,8557.3616557,78
1643558983405,8557.3616589,73
1643558983405,8557.3616644,75
1643558983405,8557.3616702,80
1643558983405,8557.3616734,71
1643558983429,8557.3616784,66
1643558983429,8557.3616817,68
1643558983429,8557.3616865,66
1643558983429,8557.3616897,63
1643558983429,8557.3616946,63
1643558983429,8557.3616978,61
1643558983429,8557.3617027,63
1643558983429,8557.361706,106
1643558983429,8557.3617105,156
1643558983429,8557.3617145,161
1643558983450,8557.3617192,132
1643558983450,8557.3617226,132
1643558983450,8557.3617257,139
1643558983450,8557.3617297,116
1643558983450,8557.3617329,94
1643558983450,8557.3617378,85
1643558983450,8557.3617408,78
1643558983450,8557.3617439,80
1643558983450,8557.3617488,80
1643558983450,8557.3617522,73
1643558983472,8557.3617571,78
1643558983472,8557.3617603,63
1643558983472,8557.3617652,14
1643558983472,8557.3617683,104
1643558983472,8557.361773,497
1643558983472,8557.361777,952
1643558983472,8557.3617817,904
1643558983472,8557.3617855,298
1643558983472,8557.3617904,-89
1643558983472,8557.3617951,-26
1643558983495,8557.3618,-9
1643558983495,8557.3618032,-33
1643558983495,8557.3618081,35
1643558983495,8557.3618111,26
1643558983872,8557.3618143,-30
1643558983872,8557.3618173,-7
1643558983872,8557.3618203,16
1643558983872,8557.3618233,0
1643558983872,8557.3618263,7
1643558983872,8557.3618292,28
1643558983872,8557.3618321,23
1643558983872,8557.361835,23
1643558983872,8557.361838,40
1643558983872,8557.3618409,52
1643558983895,8557.3618439,49
1643558983895,8557.3618467,52
1643558983895,8557.3618496,63
1643558983895,8557.3618525,78
1643558983895,8557.3618554,82
1643558983895,8557.3618583,89
1643558983895,8557.3618641,106
1643558983895,8557.3618685,116
1643558983895,8557.3618716,120
1643558983895,8557.3618778,132
1643558983917,8557.3618807,146
1643558983917,8557.3618838,156
1643558983917,8557.3618889,165
1643558983917,8557.3618921,175
1643558983917,8557.3618971,179
1643558983917,8557.3619002,175
1643558983917,8557.3619043,177
1643558983917,8557.3619075,184
1643558983917,8557.9080842,177
1643558983917,8557.9080978,165
1643558983938,8557.9081015,163
1643558983938,8557.9081065,153
1643558983938,8557.9081097,120
1643558983938,8557.9081146,87
1643558983938,8557.9081177,68
1643558983938,8557.9081224,40
1643558983938,8557.9081268,4
1643558983938,8557.9081318,-18
1643558983938,8557.9081349,-30
1643558983938,8557.9081396,-33
1643558983961,8557.9081437,-30
1643558983961,8557.9081485,-28
1643558983961,8557.9081515,-21
1643558983961,8557.9081565,-28
1643558983961,8557.9081596,-44
1643558983961,8557.9081644,-42
1643558983961,8557.9081675,-28
1643558983961,8557.9081706,-21
1643558983961,8557.9081754,-21
1643558983961,8557.9081799,-18
1643558983983,8557.9081847,-4
1643558983983,8557.9081886,11
1643558983983,8557.9081934,7
1643558983983,8557.9081972,0
1643558983983,8557.908202,4
1643558983983,8557.9082066,11
1643558983983,8557.9082113,11
1643558983983,8557.9082146,14
1643558983983,8557.9082177,21
1643558983983,8557.9082225,21
1643558984005,8557.9082264,11
1643558984005,8557.9082312,9
1643558984005,8557.9082344,14
1643558984005,8557.9082396,16
1643558984005,8557.9082428,16
1643558984005,8557.9082476,16
1643558984005,8557.9082508,16
1643558984005,8557.9082555,21
1643558984005,8557.9082585,21
1643558984005,8557.9082632,16
1643558984028,8557.9082677,18
1643558984028,8557.9082724,30
1643558984028,8557.9082754,28
1643558984028,8557.9082785,21
1643558984473,8557.9082834,26
1643558984473,8557.9082874,21
1643558984473,8557.9082902,7
1643558984473,8557.9082933,4
1643558984473,8557.9082962,30
1643558984473,8557.908299,82
1643558984473,8557.9083019,125
1643558984473,8557.9083047,116
1643558984473,8557.9083075,92
1643558984473,8557.9083103,94
1643558984495,8557.9083131,97
1643558984495,8557.9083159,68
1643558984495,8557.9083187,42
1643558984495,8557.9083215,35
1643558984495,8557.9083243,37
1643558984495,8557.9083273,30
1643558984495,8557.9083301,30
1643558984495,8557.9083345,33
1643558984495,8557.9083388,26
1643558984495,8557.9083419,-7
1643558984518,8557.9083468,-40
1643558984518,8557.9083499,113
1643558984518,8557.9083547,577
1643558984518,8557.9083577,1023
1643558984518,8557.9083607,847
1643558984518,8557.9083647,217
1643558984518,8557.9083677,-33
1643558984518,8558.508344,61
1643558984518,8558.5083579,11
1643558984518,8558.508362,-54
1643558984539,8558.5083674,-16
1643558984539,8558.5083708,-30
1643558984539,8558.5083759,-68
1643558984539,8558.5083793,-52
1643558984539,8558.5084166,-52
1643558984539,8558.5084229,-87
1643558984539,8558.5084263,-85
1643558984539,8558.5084314,-59
1643558984539,8558.5084347,-54
1643558984539,8558.5084397,-54
1643558984561,8558.5084428,-47
1643558984561,8558.5084461,-44
1643558984561,8558.508451,-40
1643558984561,8558.5084544,-30
1643558984561,8558.5084593,-18
1643558984561,8558.5084626,-9
1643558984561,8558.5084684,0
1643558984561,8558.5084716,9
1643558984561,8558.5084746,16
1643558984561,8558.5084777,23
1643558984583,8558.5084807,28
1643558984583,8558.5084837,40
1643558984583,8558.5084868,54
1643558984583,8558.5084897,66
1643558984583,8558.5084928,73
1643558984583,8558.5084959,78
1643558984583,8558.508499,82
1643558984583,8558.5085021,89
1643558984583,8558.508505,87
1643558984583,8558.5085081,82
1643558984606,8558.5085114,87
1643558984606,8558.5085144,89
1643558984606,8558.5085174,82
1643558984606,8558.5085204,68
1643558984606,8558.5085235,47
1643558984606,8558.5085269,26
1643558984606,8558.5085305,2
1643558984606,8558.508534,-23
1643558984606,8558.508537,-40
1643558984606,8558.50854,-44
1643558984628,8558.508543,-49
1643558984628,8558.5085462,-54
1643558984628,8558.5085493,-49
1643558984628,8558.5085523,-44
1643558984984,8558.5085554,-44
1643558984984,8558.5085584,-42
1643558984984,8558.5085614,-37
1643558984984,8558.5085644,-33
1643558984984,8558.5085681,-26
1643558984984,8558.508571,-21
1643558984984,8558.5085741,-18
1643558984984,8558.5085771,-16
1643558984984,8558.5085801,-16
1643558984984,8558.5085831,-14
1643558985006,8558.5085861,-11
1643558985006,8558.5085896,-7
1643558985006,8558.5085926,-4
1643558985006,8558.5085956,-4
1643558985006,8558.5085985,-2
1643558985006,8558.5086016,0
1643558985006,8558.5086046,2
1643558985006,8558.5086077,4
1643558985006,8558.5086107,4
1643558985006,8558.5086148,2
1643558985028,8558.5086185,2
1643558985028,8558.5086218,7
1643558985028,8558.5086248,11
1643558985028,8558.5086279,11
1643558985028,8558.5086308,11
1643558985028,8558.5086338,11
1643558985028,8559.0129259,11
1643558985028,8559.0129386,11
1643558985028,8559.0129431,18
1643558985028,8559.0129482,23
1643558985050,8559.0129512,23
1643558985050,8559.0129543,18
1643558985050,8559.0129592,4
1643558985050,8559.0129631,-7
1643558985050,8559.0129672,-2
1643558985050,8559.0129703,-7
1643558985050,8559.0129752,-14
1643558985050,8559.0129782,9
1643558985050,8559.0129812,47
1643558985050,8559.0129862,63
1643558985072,8559.0129907,54
1643558985072,8559.0129954,42
1643558985072,8559.0129983,54
1643558985072,8559.0130015,59
1643558985072,8559.0130061,23
1643558985072,8559.0130091,-11
1643558985072,8559.0130121,-21
1643558985072,8559.013016,-26
1643558985072,8559.0130191,-28
1643558985072,8559.0130238,-28
1643558985095,8559.0130268,-23
1643558985095,8559.0130299,-26
1643558985095,8559.0130338,-56
1643558985095,8559.0130385,-99
1643558985095,8559.0130415,11
1643558985095,8559.0130446,419
1643558985095,8559.0130494,873
1643558985095,8559.013054,843
1643558985095,8559.0130587,319
1643558985095,8559.0130617,18
1643558985117,8559.0130647,99
1643558985117,8559.0130687,82
1643558985117,8559.0130718,-44
1643558985117,8559.0130769,-73
1643558985117,8559.0130811,-78
1643558985117,8559.0130842,-108
1643558985117,8559.0130883,-104
1643558985117,8559.0130914,-85
1643558985117,8559.0130961,-87
1643558985117,8559.0130989,-85
1643558985139,8559.013102,-68
1643558985139,8559.0131064,-66
1643558985139,8559.0131095,-71
1643558985139,8559.0131144,-59
1643558985539,8559.0131173,-44
1643558985539,8559.0131202,-40
1643558985539,8559.0131231,-33
1643558985539,8559.013126,-23
1643558985539,8559.0131749,-14
1643558985539,8559.0131822,-9
1643558985539,8559.0131875,-4
1643558985539,8559.0131911,7
1643558985539,8559.0131942,26
1643558985539,8559.0131991,42
1643558985561,8559.0132021,47
1643558985561,8559.0132283,56
1643558985561,8559.0132338,71
1643558985561,8559.013237,80
1643558985561,8559.0132419,89
1643558985561,8559.0132449,94
1643558985561,8559.013248,101
1643558985561,8559.0132528,118
1643558985561,8559.0132558,120
1643558985561,8559.0132588,111
1643558985583,8559.0132636,108
1643558985583,8559.0132682,104
1643558985583,8559.0132729,85
1643558985583,8559.0132775,63
1643558985583,8559.0132822,47
1643558985583,8559.5629937,23
1643558985583,8559.5630061,4
1643558985583,8559.563012,-4
1643558985583,8559.5630173,-18
1643558985583,8559.5630205,-28
1643558985606,8559.563025,-30
1643558985606,8559.5630304,-26
1643558985606,8559.5630334,-26
1643558985606,8559.5630365,-35
1643558985606,8559.5630397,-26
1643558985606,8559.5630448,-9
1643558985606,8559.5630479,-37
1643558985606,8559.5630528,-66
1643558985606,8559.5630559,-52
1643558985606,8559.5630611,-37
1643558985628,8559.5630942,-47
1643558985628,8559.563103,-47
1643558985628,8559.5631066,-33
1643558985628,8559.5631119,-21
1643558985628,8559.5631161,-16
1643558985628,8559.5631194,-16
1643558985628,8559.5631245,-11
1643558985628,8559.5631278,0
1643558985628,8559.5631311,4
1643558985628,8559.5631361,-4
1643558985650,8559.5631401,-7
1643558985650,8559.5631449,9
1643558985650,8559.5631482,18
1643558985650,8559.5631531,7
1643558985650,8559.5631562,9
1643558985650,8559.5631612,21
1643558985650,8559.5631645,21
1643558985650,8559.5631693,18
1643558985650,8559.5631731,23
1643558985650,8559.5631778,28
1643558985672,8559.5631817,23
1643558985672,8559.5631869,26
1643558985672,8559.5631902,30
1643558985672,8559.5631951,21
1643558985672,8559.5631983,21
1643558985672,8559.5632023,21
1643558985672,8559.5632056,9
1643558985672,8559.5632104,18
1643558985672,8559.5632135,56
1643558985672,8559.5632183,101
1643558985694,8559.5632215,125
1643558985694,8559.5632263,111
1643558985694,8559.5632303,101
1643558985694,8559.5632351,120
1643558986138,8559.5632384,111
1643558986138,8559.5632415,71
1643558986138,8559.5632445,54
1643558986138,8559.5632475,56
1643558986138,8559.5632505,56
1643558986138,8559.5632536,54
1643558986138,8559.5632566,59
1643558986138,8559.5632595,56
1643558986138,8559.5632626,52
1643558986138,8559.5632655,14
1643558986161,8559.5632685,-2
1643558986161,8559.5632715,232
1643558986161,8559.5632747,769
1643558986161,8559.5632781,1131
1643558986161,8559.5632811,772
1643558986161,8559.5632844,113
1643558986161,8559.5632899,-21
1643558986161,8559.5632932,75
1643558986161,8559.563298,-14
1643558986161,8559.5633028,-44
1643558986184,8559.5633076,4
1643558986184,8559.5633114,-42
1643558986184,8559.5633161,-75
1643558986184,8559.5633195,-40
1643558986184,8560.1631976,-28
1643558986184,8560.163218,-42
1643558986184,8560.1632225,-33
1643558986184,8560.1632267,-26
1643558986184,8560.16323,-26
1643558986184,8560.1632356,-16
1643558986206,8560.1632387,-14
1643558986206,8560.1632417,-11
1643558986206,8560.1632467,-2
1643558986206,8560.1632512,-7
1643558986206,8560.163256,-28
1643558986206,8560.1632588,-26
1643558986206,8560.1632619,-4
1643558986206,8560.1632668,9
1643558986206,8560.1632698,18
1643558986206,8560.1632738,33
1643558986228,8560.1632768,44
1643558986228,8560.1632814,52
1643558986228,8560.163286,68
1643558986228,8560.1632907,92
1643558986228,8560.1632951,101
1643558986228,8560.1632997,113
1643558986228,8560.1633041,123
1643558986228,8560.1633087,118
1643558986228,8560.1633116,120
1643558986228,8560.1633146,132
1643558986250,8560.1633193,137
1643558986250,8560.1633237,132
1643558986250,8560.1633277,116
1643558986250,8560.1633317,94
1643558986250,8560.1633348,78
1643558986250,8560.1633395,56
1643558986250,8560.1633441,30
1643558986250,8560.1633488,11
1643558986250,8560.1633531,0
1643558986250,8560.1633582,-11
1643558986272,8560.1633622,-21
1643558986272,8560.1633668,-21
1643558986272,8560.16337,-16
1643558986272,8560.1633746,-14
1643558986272,8560.1633789,-11
1643558986272,8560.1633835,-9
1643558986272,8560.1633882,-9
1643558986272,8560.1633927,-7
1643558986272,8560.1633972,-2
1643558986272,8560.1634019,0
1643558986294,8560.1634061,0
1643558986294,8560.1634107,2
1643558986294,8560.1634136,4
1643558986294,8560.1634166,9
1643558986916,8560.1634213,14
1643558986916,8560.1634249,16
1643558986916,8560.1634277,16
1643558986916,8560.1634306,21
1643558986916,8560.1634334,21
1643558986916,8560.1634362,18
1643558986916,8560.163439,18
1643558986916,8560.1634417,23
1643558986916,8560.1634445,23
1643558986916,8560.1634473,16
1643558986950,8560.1634501,14
1643558986950,8560.1634529,14
1643558986950,8560.1634558,16
1643558986950,8560.1634585,18
1643558986950,8560.1634615,16
1643558986950,8560.1634646,14
1643558986950,8560.1634686,21
1643558986950,8560.1634716,23
1643558986950,8560.1634762,11
1643558986950,8560.1634792,-2
1643558986983,8560.1634824,-14
1643558986983,8560.1634872,-26
1643558986983,8560.1634917,-26
1643558986983,8560.9584763,2
1643558986983,8560.9584882,54
1643558986983,8560.9584933,89
1643558986983,8560.9584984,82
1643558986983,8560.9585015,66
1643558986983,8560.9585063,78
1643558986983,8560.9585094,82
1643558987016,8560.9585126,47
1643558987016,8560.9585172,14
1643558987016,8560.9585203,4
1643558987016,8560.9585251,4
1643558987016,8560.9585281,4
1643558987016,8560.9585328,9
1643558987016,8560.9585359,11
1643558987016,8560.9585405,-4
1643558987016,8560.9585436,-61
1643558987016,8560.9585486,-111
1643558987050,8560.9585516,44
1643558987050,8560.9585563,504
1643558987050,8560.9585608,975
1643558987050,8560.9585658,890
1643558987050,8560.9585689,305
1643558987050,8560.9585736,11
1643558987050,8560.9585783,85
1643558987050,8560.958583,30
1643558987050,8560.9585866,-87
1643558987050,8560.9585913,-89
1643558987083,8560.958595,-99
1643558987083,8560.9585997,-132
1643558987083,8560.9586028,-120
1643558987083,8560.9586075,-101
1643558987083,8560.9586108,-104
1643558987083,8560.9586156,-94
1643558987083,8560.9586187,-80
1643558987083,8560.9586233,-80
1643558987083,8560.9586263,-75
1643558987083,8560.9586312,-63
1643558987118,8560.9586355,-54
1643558987118,8560.9586402,-49
1643558987118,8560.9586446,-42
1643558987118,8560.9586492,-33
1643558987118,8560.9586528,-21
1643558987118,8560.9586575,-11
1643558987118,8560.9586612,-2
1643558987118,8560.958666,7
1643558987118,8560.9586691,18
1643558987118,8560.9586738,30
1643558987150,8560.9586774,37
1643558987150,8560.958682,49
1643558987150,8560.9586856,66
1643558987150,8560.9586902,73
1643558987282,8560.958694,73
1643558987282,8560.958697,78
1643558987282,8560.9586999,85
1643558987282,8560.9587028,92
1643558987282,8560.9587056,97
1643558987282,8560.9587085,94
1643558987282,8560.9587114,92
1643558987282,8560.9587142,97
1643558987282,8560.958717,92
1643558987282,8560.95872,71
1643558987316,8560.9587229,44
1643558987316,8560.9587257,18
1643558987316,8560.9587286,-4
1643558987316,8560.9587315,-16
1643558987316,8560.9587344,-18
1643558987316,8560.9587373,-23
1643558987316,8560.9587404,-26
1643558987316,8560.9587455,-23
1643558987316,8560.9587493,-21
1643558987316,8560.9587541,-18
1643558987349,8560.9587572,-18
1643558987349,8560.9587619,-21
1643558987349,8561.3103604,-18
1643558987349,8561.3103728,-11
1643558987349,8561.3103764,-7
1643558987349,8561.310382,-7
1643558987349,8561.3103851,-14
1643558987349,8561.3103899,-11
1643558987349,8561.3103948,-2
1643558987349,8561.3103995,-9
1643558987383,8561.3104025,-16
1643558987383,8561.3104056,-14
1643558987383,8561.3104105,-14
1643558987383,8561.3104135,-18
1643558987383,8561.3104175,-14
1643558987383,8561.3104218,-11
1643558987383,8561.310425,-16
1643558987383,8561.3104299,-11
1643558987383,8561.3104343,-7
1643558987383,8561.310439,-4
1643558987416,8561.310442,-7
1643558987416,8561.310446,-9
1643558987416,8561.3104491,-11
1643558987416,8561.3104538,-11
1643558987416,8561.3104581,-9
1643558987416,8561.3104627,-7
1643558987416,8561.3104661,-4
1643558987416,8561.3104707,-9
1643558987416,8561.3104738,-18
1643558987416,8561.3104785,-26
1643558987449,8561.3104829,-28
1643558987449,8561.3104875,-35
1643558987449,8561.3104914,-28
1643558987449,8561.3104961,16
1643558987449,8561.3104991,61
1643558987449,8561.3105037,68
1643558987449,8561.3105067,52
1643558987449,8561.3105098,52
1643558987449,8561.3105145,63
1643558987449,8561.3105191,49
1643558987483,8561.3105237,14
1643558987483,8561.3105281,-16
1643558987483,8561.3105327,-30
1643558987483,8561.3105358,-28
1643558987483,8561.310541,-23
1643558987483,8561.3105441,-26
1643558987483,8561.3105489,-28
1643558987483,8561.3105519,-37
1643558987483,8561.3105563,-89
1643558987483,8561.3105594,-87
1643558987517,8561.3105632,165
1643558987517,8561.3105664,641
1643558987517,8561.3105711,916
1643558987517,8561.3105755,603
1643558987818,8561.3105802,111
1643558987818,8561.3105833,30
1643558987818,8561.3105862,101
1643558987818,8561.3105892,-2
1643558987818,8561.3105921,-92
1643558987818,8561.3105951,-87
1643558987818,8561.3105979,-104
1643558987818,8561.3106008,-127
1643558987818,8561.3106036,-108
1643558987818,8561.3106065,-97
1643558987839,8561.3106096,-101
1643558987839,8561.3106124,-89
1643558987839,8561.3106153,-78
1643558987839,8561.3106182,-73
1643558987839,8561.3106211,-63
1643558987839,8561.310624,-56
1643558987839,8561.3106268,-49
1643558987839,8561.3106299,-37
1643558987839,8561.3106347,-26
1643558987839,8561.3106377,-18
1643558987870,8561.3106407,-16
1643558987870,8561.8615849,-7
1643558987870,8561.8615978,0
1643558987870,8561.8616034,7
1643558987870,8561.8616088,18
1643558987870,8561.8616139,28
1643558987870,8561.8616189,37
1643558987870,8561.8616221,52
1643558987870,8561.8616271,66
1643558987870,8561.8616304,68
1643558987889,8561.8616353,68
1643558987889,8561.8616394,80
1643558987889,8561.8616442,82
1643558987889,8561.8616474,66
1643558987889,8561.8616522,61
1643558987889,8561.861657,78
1643558987889,8561.8616618,82
1643558987889,8561.8616651,73
1643558987889,8561.8616684,66
1643558987889,8561.8616733,49
1643558987906,8561.8616768,4
1643558987906,8561.8616801,-28
1643558987906,8561.8616851,-33
1643558987906,8561.86169,-40
1643558987906,8561.8616949,-49
1643558987906,8561.8616982,-54
1643558987906,8561.8617032,-52
1643558987906,8561.861708,-40
1643558987906,8561.8617117,-42
1643558987906,8561.8617158,-52
1643558987928,8561.8617191,-40
1643558987928,8561.8617236,-26
1643558987928,8561.8617372,-26
1643558987928,8561.8617532,-33
1643558987928,8561.8617597,-35
1643558987928,8561.8617635,-18
1643558987928,8561.8617686,-14
1643558987928,8561.8617719,-30
1643558987928,8561.8617752,-28
1643558987928,8561.8617794,-11
1643558987951,8561.8617828,-16
1643558987951,8561.8617878,-21
1643558987951,8561.8617909,-14
1643558987951,8561.8617943,-9
1643558987951,8561.8617976,-18
1643558987951,8561.8618007,-26
1643558987951,8561.861804,-23
1643558987951,8561.8618071,-4
1643558987951,8561.8618123,11
1643558987951,8561.8618176,-16
1643558987974,8561.8618209,-37
1643558987974,8561.8618261,-14
1643558987974,8561.8618312,-2
1643558987974,8561.8618363,-16
1643558988483,8561.8618399,-16
1643558988483,8561.8618431,-7
1643558988483,8561.8618463,2
1643558988483,8561.8618494,2
1643558988483,8561.8618526,-14
1643558988483,8561.861873,-23
1643558988483,8561.8618846,-9
1643558988483,8561.8618904,-9
1643558988483,8561.8618939,-16
1643558988483,8561.8618997,16
1643558988506,8561.8619041,80
1643558988506,8561.8619074,111
1643558988506,8561.8619125,85
1643558988506,8561.8619175,59
1643558988506,8561.8619223,75
1643558988506,8561.8619255,78
1643558988506,8561.8619304,37
1643558988506,8561.8619336,16
1643558988506,8561.8619385,28
1643558988506,8561.8619432,26
1643558988528,8562.5117299,16
1643558988528,8562.5117422,23
1643558988528,8562.5117471,30
1643558988528,8562.5117522,14
1643558988528,8562.5117555,-23
1643558988528,8562.5117602,-7
1643558988528,8562.5117632,258
1643558988528,8562.5117665,790
1643558988528,8562.5117717,1094
1643558988528,8562.5117756,610
1643558988549,8562.5117806,-104
1643558988549,8562.5117838,-191
1643558988549,8562.511788,-40
1643558988549,8562.5117911,-94
1643558988549,8562.5117958,-80
1643558988549,8562.5117997,-2
1643558988549,8562.5118046,-37
1643558988549,8562.5118089,-82
1643558988549,8562.5118137,-52
1643558988549,8562.5118167,-26
1643558988571,8562.5118198,-33
1643558988571,8562.5118244,-28
1643558988571,8562.5118274,-11
1643558988571,8562.5118306,-9
1643558988571,8562.5118354,-7
1643558988571,8562.5118393,-4
1643558988571,8562.5118442,4
1643558988571,8562.5118473,23
1643558988571,8562.511852,37
1643558988571,8562.5118566,33
1643558988594,8562.5118614,33
1643558988594,8562.5118644,54
1643558988594,8562.5118684,75
1643558988594,8562.5118715,87
1643558988594,8562.5118762,104
1643558988594,8562.5118799,108
1643558988594,8562.5118846,111
1643558988594,8562.5118884,118
1643558988594,8562.5118932,130
1643558988594,8562.5118976,151
1643558988616,8562.5119022,153
1643558988616,8562.5119052,127
1643558988616,8562.5119093,130
1643558988616,8562.511914,144
1643558988616,8562.5119172,127
1643558988616,8562.5119221,134
1643558988616,8562.5119252,142
1643558988616,8562.5119292,111
1643558988616,8562.5119323,87
1643558988616,8562.5119373,75
1643558988639,8562.5119405,49
1643558988639,8562.5119454,16
1643558988639,8562.5119484,0
1643558988639,8562.5119531,-16
1643558988884,8562.5119574,-33
1643558988884,8562.5119604,-35
1643558988884,8562.5119633,-33
1643558988884,8562.5119661,-35
1643558988884,8562.511969,-37
1643558988884,8562.5119718,-28
1643558988884,8562.5119747,-18
1643558988884,8562.5119775,-14
1643558988884,8562.5119804,-9
1643558988884,8562.5119832,-7
1643558988906,8562.511986,-4
1643558988906,8562.5119889,-2
1643558988906,8562.5119918,-4
1643558988906,8562.5119947,0
1643558988906,8562.5119976,4
1643558988906,8562.5120007,2
1643558988906,8562.5120054,2
1643558988906,8562.5120083,11
1643558988906,8562.5120115,14
1643558988906,8562.913048,7
1643558988929,8562.9130614,7
1643558988929,8562.9130652,7
1643558988929,8562.9130704,-4
1643558988929,8562.9130741,-11
1643558988929,8562.9130781,-4
1643558988929,8562.9130814,0
1643558988929,8562.9130864,-7
1643558988929,8562.9130912,-14
1643558988929,8562.9130962,-7
1643558988929,8562.9130993,-4
1643558988952,8562.9131024,-21
1643558988952,8562.9131075,-21
1643558988952,8562.9131122,-23
1643558988952,8562.9131171,-35
1643558988952,8562.9131203,-40
1643558988952,8562.9131252,-42
1643558988952,8562.9131289,-11
1643558988952,8562.9131337,63
1643558988952,8562.9131369,94
1643558988952,8562.9131401,66
1643558988973,8562.913145,44
1643558988973,8562.9131482,42
1643558988973,8562.913153,18
1643558988973,8562.9131569,-16
1643558988973,8562.9131617,-9
1643558988973,8562.9131662,4
1643558988973,8562.9131711,-9
1643558988973,8562.9131741,-14
1643558988973,8562.9131773,-30
1643558988973,8562.9131824,-47
1643558988995,8562.9131856,-30
1643558988995,8562.9131888,-71
1643558988995,8562.9131938,-59
1643558988995,8562.9131971,291
1643558988995,8562.913202,899
1643558988995,8562.9132059,1108
1643558988995,8562.9132107,440
1643558988995,8562.9132139,-298
1643558988995,8562.9132187,-265
1643558988995,8562.9132219,-97
1643558989017,8562.9132266,-191
1643558989017,8562.9132301,-165
1643558989017,8562.9132341,-78
1643558989017,8562.9132374,-87
1643558989017,8562.9132422,-75
1643558989017,8562.9132454,-42
1643558989017,8562.9132502,-54
1643558989017,8562.9132548,-68
1643558989017,8562.9132596,-54
1643558989017,8562.9132627,-33
1643558989044,8562.9132677,-28
1643558989044,8562.9132723,-26
1643558989044,8562.913277,-14
1643558989044,8562.9132802,-9
1643558989486,8562.913285,-11
1643558989486,8562.9132882,2
1643558989486,8562.9132912,23
1643558989486,8562.9132942,28
1643558989486,8562.9132972,26
1643558989486,8562.9133002,44
1643558989486,8562.9133032,63
1643558989486,8562.9133062,73
1643558989486,8562.9133091,82
1643558989486,8562.913312,94
1643558989520,8562.913315,99
1643558989520,8562.9133179,108
1643558989520,8562.9133208,130
1643558989520,8562.913324,139
1643558989520,8562.9133269,134
1643558989520,8562.9133298,134
1643558989520,8562.9133337,125
1643558989520,8562.913337,130
1643558989520,8563.5122494,142
1643558989520,8563.512262,130
1643558989555,8563.5122657,118
1643558989555,8563.5122689,108
1643558989555,8563.5122741,80
1643558989555,8563.5122783,44
1643558989555,8563.5122814,16
1643558989555,8563.5122845,-18
1643558989555,8563.5122894,-56
1643558989555,8563.5122941,-66
1643558989555,8563.512298,-61
1643558989555,8563.5123311,-59
1643558989585,8563.5123382,-52
1643558989585,8563.5123557,-54
1643558989585,8563.5123601,-54
1643558989585,8563.512365,-37
1643558989585,8563.5123706,-23
1643558989585,8563.5123738,-26
1643558989585,8563.5123788,-26
1643558989585,8563.512382,-21
1643558989585,8563.5123868,-18
1643558989585,8563.5123899,-7
1643558989621,8563.5123948,9
1643558989621,8563.512398,11
1643558989621,8563.5124016,-2
1643558989621,8563.5124066,-4
1643558989621,8563.5124098,-2
1643558989621,8563.5124139,-9
1643558989621,8563.5124193,-2
1643558989621,8563.5124225,0
1643558989621,8563.5124275,-11
1643558989621,8563.5124307,-9
1643558989653,8563.5124355,-9
1643558989653,8563.5124386,-14
1643558989653,8563.5124434,-16
1643558989653,8563.5124465,-11
1643558989653,8563.5124513,-18
1643558989653,8563.5124548,-23
1643558989653,8563.5124579,-26
1643558989653,8563.512463,-37
1643558989653,8563.5124671,-52
1643558989653,8563.5124702,-56
1643558989686,8563.5124752,-52
1643558989686,8563.5124784,-11
1643558989686,8563.5124825,44
1643558989686,8563.5124857,68
1643558989686,8563.5124906,52
1643558989686,8563.5124938,44
1643558989686,8563.5124988,59
1643558989686,8563.5125018,54
1643558989686,8563.5125049,21
1643558989686,8563.5125097,7
1643558989719,8563.5125129,0
1643558989719,8563.5125176,-9
1643558989719,8563.5125207,-2
1643558989719,8563.5125259,4
1643558990030,8563.5125292,0
1643558990030,8563.5125322,0
1643558990030,8563.5125351,-26
1643558990030,8563.512538,-42
1643558990030,8563.512541,184
1643558990030,8563.5125439,741
1643558990030,8563.5125468,1155
1643558990030,8563.5125501,755
1643558990030,8563.5125531,-54
1643558990030,8563.512556,-234
1643558990053,8563.512559,-49
1643558990053,8563.5125618,-113
1643558990053,8563.5125647,-144
1643558990053,8563.5125675,-47
1643558990053,8563.5125704,-52
1643558990053,8563.5125733,-87
1643558990053,8563.5125764,-59
1643558990053,8564.0633518,-49
1643558990053,8564.0633648,-59
1643558990053,8564.0633687,-47
1643558990076,8564.0633738,-40
1643558990076,8564.063377,-35
1643558990076,8564.0633822,-30
1643558990076,8564.0633863,-30
1643558990076,8564.0633911,-23
1643558990076,8564.0633943,-9
1643558990076,8564.0633991,-4
1643558990076,8564.0634115,-2
1643558990076,8564.0634147,7
1643558990076,8564.0634193,2
1643558990096,8564.0634225,-9
1643558990096,8564.063427,0
1643558990096,8564.06343,23
1643558990096,8564.063433,37
1643558990096,8564.0634361,42
1643558990096,8564.0634391,47
1643558990096,8564.0634421,54
1643558990096,8564.063445,73
1643558990096,8564.063448,92
1643558990096,8564.0634509,97
1643558990119,8564.0634539,99
1643558990119,8564.0634568,101
1643558990119,8564.0634655,97
1643558990119,8564.0634699,94
1643558990119,8564.063473,99
1643558990119,8564.063476,92
1643558990119,8564.063479,68
1643558990119,8564.0634819,42
1643558990119,8564.0634943,18
1643558990119,8564.0635171,-7
1643558990141,8564.0635226,-26
1643558990141,8564.0635258,-35
1643558990141,8564.0635288,-40
1643558990141,8564.0635318,-47
1643558990141,8564.0635348,-44
1643558990141,8564.0635377,-35
1643558990141,8564.0635406,-35
1643558990141,8564.0635436,-37
1643558990141,8564.0635465,-30
1643558990141,8564.0635496,-21
1643558990163,8564.0635525,-14
1643558990163,8564.0635555,-16
1643558990163,8564.0635586,-18
1643558990163,8564.0635615,-9
1643558990163,8564.0635645,0
1643558990163,8564.063568,2
1643558990163,8564.0635721,9
1643558990163,8564.063575,9
1643558990163,8564.0635782,7
1643558990163,8564.0635812,14
1643558990185,8564.0635842,18
1643558990185,8564.0636179,14
1643558990185,8564.0636297,9
1643558990185,8564.0636338,11
1643558990674,8564.063637,4
1643558990674,8564.0636401,2
1643558990674,8564.0636437,4
1643558990674,8564.0636466,2
1643558990674,8564.0636498,-4
1643558990674,8564.0636527,-11
1643558990674,8564.0636557,-14
1643558990674,8564.0636587,-14
1643558990674,8564.0636618,-16
1643558990674,8564.0636648,-21
1643558990695,8564.0636678,-26
1643558990695,8564.0636708,-33
1643558990695,8564.0636739,-44
1643558990695,8564.063677,-44
1643558990695,8564.06368,-4
1643558990695,8564.0636831,52
1643558990695,8564.7076422,75
1643558990695,8564.7076818,54
1643558990695,8564.7076959,42
1643558990695,8564.7077002,61
1643558990718,8564.7077263,54
1643558990718,8564.7077324,16
1643558990718,8564.707752,-2
1643558990718,8564.7078121,0
1643558990718,8564.7078194,-2
1643558990718,8564.7078284,-9
1643558990718,8564.7078322,-23
1643558990718,8564.7078353,-52
1643558990718,8564.7078382,-71
1643558990718,8564.7078412,-104
1643558990740,8564.7078441,-113
1643558990740,8564.7078471,125
1643558990740,8564.70785,682
1643558990740,8564.707853,1091
1643558990740,8564.7078559,760
1643558990740,8564.7078588,80
1643558990740,8564.7078752,-97
1643558990740,8564.7078811,0
1643558990740,8564.7078842,-82
1643558990740,8564.7078871,-137
1643558990763,8564.70789,-99
1643558990763,8564.7078929,-123
1643558990763,8564.7078958,-153
1643558990763,8564.7079031,-132
1643558990763,8564.7079077,-118
1643558990763,8564.7079108,-118
1643558990763,8564.7079137,-104
1643558990763,8564.7079166,-92
1643558990763,8564.707929,-92
1643558990763,8564.7079354,-87
1643558990784,8564.7079653,-73
1643558990784,8564.7079753,-63
1643558990784,8564.707979,-56
1643558990784,8564.7079822,-47
1643558990784,8564.7079852,-37
1643558990784,8564.7079881,-30
1643558990784,8564.7079911,-18
1643558990784,8564.707994,-4
1643558990784,8564.708002,4
1643558990784,8564.7080075,11
1643558990807,8564.7080158,23
1643558990807,8564.7080245,35
1643558990807,8564.7080278,49
1643558990807,8564.7080393,66
1643558990807,8564.7081597,75
1643558990807,8564.7081666,85
1643558990807,8564.7081702,92
1643558990807,8564.7081733,99
1643558990807,8564.7081763,97
1643558990807,8564.7081793,94
1643558990829,8564.7081823,99
1643558990829,8564.7081853,99
1643558990829,8564.7081884,87
1643558990829,8564.7081914,68
1643558991121,8564.7081943,47
1643558991121,8564.7081973,23
1643558991121,8564.7082003,2
1643558991121,8564.7082033,-14
1643558991121,8564.7082063,-28
1643558991121,8564.7082092,-40
1643558991121,8564.7082122,-37
1643558991121,8564.7082151,-35
1643558991121,8564.7082181,-33
1643558991121,8564.7082211,-28
1643558991142,8564.7082241,-26
1643558991142,8564.7082271,-26
1643558991142,8564.70823,-26
1643558991142,8564.708233,-16
1643558991142,8564.708236,-14
1643558991142,8565.1633708,-16
1643558991142,8565.1633825,-16
1643558991142,8565.1633863,-18
1643558991142,8565.1633926,-23
1643558991142,8565.163396,-18
1643558991166,8565.1633993,-7
1643558991166,8565.1634027,-4
1643558991166,8565.163406,-4
1643558991166,8565.1634118,-7
1643558991166,8565.163415,-9
1643558991166,8565.16342,-14
1643558991166,8565.1634232,-14
1643558991166,8565.1634283,-21
1643558991166,8565.1634316,-21
1643558991166,8565.1634367,-16
1643558991185,8565.1634399,-23
1643558991185,8565.1634431,-49
1643558991185,8565.1634491,-59
1643558991185,8565.1634523,-56
1643558991185,8565.1634557,-56
1643558991185,8565.1634589,-54
1643558991185,8565.1634619,-52
1643558991185,8565.1634651,-61
1643558991185,8565.1634702,-73
1643558991185,8565.1634735,-73
1643558991208,8565.1634786,-78
1643558991208,8565.1634818,-82
1643558991208,8565.1634868,-49
1643558991208,8565.1634902,7
1643558991208,8565.1634951,37
1643558991208,8565.1634983,23
1643558991208,8565.1635034,9
1643558991208,8565.1635066,26
1643558991208,8565.1635117,28
1643558991208,8565.1635152,-7
1643558991230,8565.1635201,-33
1643558991230,8565.1635233,-35
1643558991230,8565.1635283,-40
1643558991230,8565.1635316,-40
1643558991230,8565.1635368,-35
1643558991230,8565.1635401,-33
1643558991230,8565.1635458,-35
1643558991230,8565.1635491,-66
1643558991230,8565.1635548,-113
1643558991230,8565.1635581,18
1643558991252,8565.1635632,478
1643558991252,8565.1635665,980
1643558991252,8565.1636058,923
1643558991252,8565.163613,322
1643558991252,8565.1636166,-14
1643558991252,8565.1636199,66
1643558991252,8565.163623,33
1643558991252,8565.1636261,-97
1643558991252,8565.1636291,-104
1643558991252,8565.1636322,-101
1643558991275,8565.1636353,-142
1643558991275,8565.1636383,-132
1643558991275,8565.1636413,-108
1643558991275,8565.1636443,-113
1643558991785,8565.1636483,-106
1643558991785,8565.1636513,-94
1643558991785,8565.1636543,-89
1643558991785,8565.1636573,-85
1643558991785,8565.1636604,-73
1643558991785,8565.1636634,-63
1643558991785,8565.1636665,-54
1643558991785,8565.1636695,-47
1643558991785,8565.1636724,-42
1643558991785,8565.1636754,-35
1643558991807,8565.1636783,-26
1643558991807,8565.1636813,-16
1643558991807,8565.1636843,-9
1643558991807,8565.1636873,2
1643558991807,8565.8081173,11
1643558991807,8565.8081307,21
1643558991807,8565.8081344,33
1643558991807,8565.8081387,42
1643558991807,8565.8081451,56
1643558991807,8565.8081503,68
1643558991829,8565.8081534,73
1643558991829,8565.8081566,68
1643558991829,8565.8081616,54
1643558991829,8565.8081649,42
1643558991829,8565.808169,54
1643558991829,8565.8081722,61
1643558991829,8565.8081755,52
1643558991829,8565.8081797,40
1643558991829,8565.8081829,23
1643558991829,8565.8081862,0
1643558991851,8565.8081894,-18
1643558991851,8565.8081935,-33
1643558991851,8565.8081967,-44
1643558991851,8565.8081999,-49
1643558991851,8565.8082049,-49
1643558991851,8565.808208,-49
1643558991851,8565.8082112,-49
1643558991851,8565.8082153,-44
1643558991851,8565.8082185,-37
1643558991851,8565.8082218,-30
1643558991873,8565.8082259,-30
1643558991873,8565.8082319,-35
1643558991873,8565.808237,-30
1643558991873,8565.8082402,-21
1643558991873,8565.8082435,-16
1643558991873,8565.8082475,-11
1643558991873,8565.8082506,-7
1643558991873,8565.808256,-7
1643558991873,8565.8082611,-4
1643558991873,8565.8082642,-7
1643558991896,8565.8082674,-9
1643558991896,8565.8082715,-4
1643558991896,8565.8082745,0
1643558991896,8565.8082793,2
1643558991896,8565.8082843,2
1643558991896,8565.8082874,-2
1643558991896,8565.8082907,-2
1643558991896,8565.8082948,-4
1643558991896,8565.808298,-7
1643558991896,8565.8083018,-2
1643558991918,8565.8083069,-2
1643558991918,8565.8083109,-4
1643558991918,8565.8083148,-4
1643558991918,8565.8083332,-4
1643558991918,8565.8083377,-4
1643558991918,8565.8083417,-9
1643558991918,8565.8083464,-14
1643558991918,8565.8083508,-18
1643558991918,8565.8083539,-26
1643558991918,8565.8083569,-35
1643558991942,8565.80836,-40
1643558991942,8565.808363,-26
1643558991942,8565.808366,23
1643558991942,8565.808369,71
1643558992274,8565.808372,66
1643558992274,8565.808375,40
1643558992274,8565.808378,47
1643558992274,8565.808381,61
1643558992274,8565.8083841,37
1643558992274,8565.8083872,7
1643558992274,8565.8083902,-7
1643558992274,8565.8083933,-18
1643558992274,8565.8083963,-23
1643558992274,8565.8083993,-16
1643558992295,8565.8084023,-14
1643558992295,8565.8084052,-16
1643558992295,8565.8084082,-26
1643558992295,8566.3100176,-73
1643558992295,8566.3100299,-47
1643558992295,8566.3100335,258
1643558992295,8566.3100367,764
1643558992295,8566.3100398,980
1643558992295,8566.3100429,563
1643558992295,8566.310046,73
1643558992318,8566.310049,44
1643558992318,8566.310052,92
1643558992318,8566.3100551,-47
1643558992318,8566.3100581,-118
1643558992318,8566.3100612,-104
1643558992318,8566.3100645,-132
1643558992318,8566.3100714,-161
1643558992318,8566.3100747,-142
1643558992318,8566.3100794,-125
1643558992318,8566.310084,-125
1643558992340,8566.3100873,-116
1643558992340,8566.3100927,-106
1643558992340,8566.310096,-101
1643558992340,8566.3101014,-101
1643558992340,8566.3101057,-89
1643558992340,8566.3101108,-73
1643558992340,8566.3101141,-66
1643558992340,8566.3101192,-61
1643558992340,8566.3101225,-49
1643558992340,8566.3101277,-42
1643558992362,8566.3101309,-30
1643558992362,8566.3101342,-16
1643558992362,8566.3101393,-7
1643558992362,8566.3101427,2
1643558992362,8566.3101479,18
1643558992362,8566.3101512,30
1643558992362,8566.3101565,40
1643558992362,8566.3101598,54
1643558992362,8566.3101651,63
1643558992362,8566.3101683,68
1643558992384,8566.3101716,75
1643558992384,8566.3101772,80
1643558992384,8566.3101808,87
1643558992384,8566.3101859,89
1643558992384,8566.3101894,92
1643558992384,8566.3101945,92
1643558992384,8566.3101978,85
1643558992384,8566.3102028,71
1643558992384,8566.3102061,49
1643558992384,8566.3102111,23
1643558992407,8566.3102144,0
1643558992407,8566.3102194,-14
1643558992407,8566.3102228,-18
1643558992407,8566.3102279,-21
1643558992407,8566.3102312,-26
1643558992407,8566.3102364,-30
1643558992407,8566.3102397,-33
1643558992407,8566.3102449,-33
1643558992407,8566.3102484,-26
1643558992407,8566.3102535,-23
1643558992436,8566.3102568,-23
1643558992436,8566.3102619,-26
1643558992436,8566.3102654,-26
1643558992436,8566.3102705,-21
1643558992830,8566.3102739,-14
1643558992830,8566.3102772,-11
1643558992830,8566.3102803,-9
1643558992830,8566.3102834,-4
1643558992830,8566.3102865,2
1643558992830,8566.3102897,4
1643558992830,8566.3102928,2
1643558992830,8566.3102959,2
1643558992830,8566.3102992,7
1643558992830,8566.3103029,4
1643558992853,8566.3103063,2
1643558992853,8566.3103094,4
1643558992853,8566.8627999,4
1643558992853,8566.8628137,2
1643558992853,8566.8628174,11
1643558992853,8566.8628209,21
1643558992853,8566.862824,9
1643558992853,8566.8628273,-33
1643558992853,8566.8628327,-61
1643558992853,8566.8628358,-44
1643558992874,8566.862839,-33
1643558992874,8566.8628441,-47
1643558992874,8566.8628472,-52
1643558992874,8566.8628523,-49
1643558992874,8566.8628554,-61
1643558992874,8566.8628586,-73
1643558992874,8566.8628622,-54
1643558992874,8566.8628652,-9
1643558992874,8566.8628684,30
1643558992874,8566.8628715,44
1643558992896,8566.8628746,42
1643558992896,8566.8628777,30
1643558992896,8566.8628808,40
1643558992896,8566.8628857,42
1643558992896,8566.8628889,14
1643558992896,8566.862892,-16
1643558992896,8566.8628952,-21
1643558992896,8566.8629001,-21
1643558992896,8566.8629032,-23
1643558992896,8566.8629063,-18
1643558992919,8566.8629113,-18
1643558992919,8566.8629145,-16
1643558992919,8566.8629193,-44
1643558992919,8566.8629223,-85
1643558992919,8566.8629254,54
1643558992919,8566.8629303,487
1643558992919,8566.8629366,904
1643558992919,8566.8629415,793
1643558992919,8566.8629472,277
1643558992919,8566.8629521,54
1643558992941,8566.8629552,139
1643558992941,8566.8629617,78
1643558992941,8566.8629649,-54
1643558992941,8566.86297,-73
1643558992941,8566.8629731,-75
1643558992941,8566.8630981,-104
1643558992941,8566.8631137,-99
1643558992941,8566.8631185,-82
1643558992941,8566.863133,-87
1643558992941,8566.8631442,-85
1643558992963,8566.8631482,-73
1643558992963,8566.8631514,-71
1643558992963,8566.8631773,-78
1643558992963,8566.8631879,-71
1643558992963,8566.8631941,-47
1643558992963,8566.8631974,-33
1643558992963,8566.8632005,-35
1643558992963,8566.8632035,-28
1643558992963,8566.8632066,-11
1643558992963,8566.8632097,-4
1643558992987,8566.8632127,4
1643558992987,8566.8632224,18
1643558992987,8566.8632266,28
1643558992987,8566.8632297,37
1643558993429,8566.8632327,47
1643558993429,8566.8632357,56
1643558993429,8566.8632387,68
1643558993429,8566.8632416,80
1643558993429,8566.8632446,87
1643558993429,8566.8632476,89
1643558993429,8566.8632505,97
1643558993429,8566.8632535,99
1643558993429,8566.8632569,94
1643558993429,8566.8632598,104
1643558993451,8566.8632628,118
1643558993451,8567.4616174,108
1643558993451,8567.4616306,87
1643558993451,8567.4616344,73
1643558993451,8567.4616394,44
1643558993451,8567.4616436,11
1643558993451,8567.4616485,-9
1643558993451,8567.4616525,-23
1643558993451,8567.4616574,-30
1643558993451,8567.4616625,-33
1643558993474,8567.4616674,-42
1643558993474,8567.4616707,-63
1643558993474,8567.4616757,-78
1643558993474,8567.4616804,-66
1643558993474,8567.4616854,-52
1643558993474,8567.4616887,-40
1643558993474,8567.4616937,-21
1643558993474,8567.4616971,-33
1643558993474,8567.4617019,-59
1643558993474,8567.4617058,-49
1643558993497,8567.4617108,-44
1643558993497,8567.4617144,-49
1643558993497,8567.4617193,-30
1643558993497,8567.4617226,-16
1643558993497,8567.4617279,-21
1643558993497,8567.4617312,-23
1643558993497,8567.4617362,-16
1643558993497,8567.4617396,-16
1643558993497,8567.4617428,-14
1643558993497,8567.4617478,-11
1643558993518,8567.4617516,-23
1643558993518,8567.4617548,-33
1643558993518,8567.4617597,-18
1643558993518,8567.4617632,-7
1643558993518,8567.4617665,-18
1643558993518,8567.4617715,-26
1643558993518,8567.4617754,-18
1643558993518,8567.4617803,-16
1643558993518,8567.4617838,-26
1643558993518,8567.4617891,-37
1643558993540,8567.4617924,-40
1643558993540,8567.4617973,-35
1643558993540,8567.4618012,-40
1643558993540,8567.4618062,-52
1643558993540,8567.4618109,-56
1643558993540,8567.4618158,-42
1643558993540,8567.4618191,-4
1643558993540,8567.4618241,40
1643558993540,8567.4618275,63
1643558993540,8567.4618326,44
1643558993562,8567.4618359,42
1643558993562,8567.4618408,63
1643558993562,8567.4618446,33
1643558993562,8567.4618495,-11
1643558993562,8567.4618529,-11
1643558993562,8567.4618561,-4
1643558993562,8567.461861,-14
1643558993562,8567.4618642,-4
1643558993562,8567.4618691,0
1643558993562,8567.461873,-7
1643558993584,8567.4618783,-14
1643558993584,8567.4618816,-42
1643558993584,8567.4618865,-16
1643558993584,8567.461893,269
1643558994075,8567.461898,738
1643558994075,8567.4619012,902
1643558994075,8567.4619043,466
1643558994075,8567.4619075,0
1643558994075,8567.4619107,-23
1643558994075,8567.4619139,11
1643558994075,8567.4619169,-54
1643558994075,8567.4619201,-33
1643558994075,8567.4619232,-18
1643558994075,8567.4619262,-85
1643558994097,8568.1102107,-92
1643558994097,8568.110224,-61
1643558994097,8568.1102287,-73
1643558994097,8568.1102347,-71
1643558994097,8568.1102393,-47
1643558994097,8568.1102448,-42
1643558994097,8568.1102484,-35
1643558994097,8568.1102537,-21
1643558994097,8568.1102571,-23
1643558994097,8568.1102624,-33
1643558994119,8568.1102659,-35
1643558994119,8568.1102717,-26
1643558994119,8568.1102752,-7
1643558994119,8568.1102806,9
1643558994119,8568.110284,18
1643558994119,8568.1102893,4
1643558994119,8568.1102928,4
1643558994119,8568.1102981,30
1643558994119,8568.1103015,40
1643558994119,8568.1103068,42
1643558994142,8568.1103102,73
1643558994142,8568.1103155,99
1643558994142,8568.1103189,94
1643558994142,8568.110324,101
1643558994142,8568.1103275,130
1643558994142,8568.1103336,130
1643558994142,8568.110337,106
1643558994142,8568.1103423,116
1643558994142,8568.1103458,130
1643558994142,8568.1103511,120
1643558994163,8568.1103546,111
1643558994163,8568.1103599,94
1643558994163,8568.1103634,52
1643558994163,8568.1103686,4
1643558994163,8568.1103721,-28
1643558994163,8568.1103774,-44
1643558994163,8568.1103808,-49
1643558994163,8568.1103862,-59
1643558994163,8568.1103896,-68
1643558994163,8568.1103949,-66
1643558994186,8568.1103983,-63
1643558994186,8568.1104035,-61
1643558994186,8568.110407,-35
1643558994186,8568.1104121,-28
1643558994186,8568.1104156,-56
1643558994186,8568.1104208,-49
1643558994186,8568.1104243,-14
1643558994186,8568.1104296,-14
1643558994186,8568.110433,-26
1643558994186,8568.1104376,-16
1643558994209,8568.1104409,-4
1643558994209,8568.110444,-2
1643558994209,8568.1104472,0
1643558994209,8568.1104504,14
1643558994209,8568.1104535,16
1643558994209,8568.1104566,-21
1643558994209,8568.1104598,-28
1643558994209,8568.1104629,9
1643558994209,8568.110466,9
1643558994209,8568.1104691,-21
1643558994231,8568.1104722,-23
1643558994231,8568.1104753,-9
1643558994231,8568.1104786,2
1643558994231,8568.1104817,-14
1643558994723,8568.110485,-40
1643558994723,8568.1104882,-23
1643558994723,8568.1104913,0
1643558994723,8568.1104944,-7
1643558994723,8568.1104975,-26
1643558994723,8568.1105008,-37
1643558994723,8568.110505,-35
1643558994723,8568.1105082,-33
1643558994723,8568.1105113,-40
1643558994723,8568.7574368,-21
1643558994741,8568.7574492,26
1643558994741,8568.7574528,49
1643558994741,8568.757456,59
1643558994741,8568.7574591,71
1643558994741,8568.757462,73
1643558994741,8568.7574651,59
1643558994741,8568.757468,21
1643558994741,8568.757471,-9
1643558994741,8568.757474,-21
1643558994741,8568.757477,-30
1643558994764,8568.75748,-21
1643558994764,8568.7574831,-7
1643558994764,8568.7574861,-28
1643558994764,8568.7574893,-33
1643558994764,8568.7574925,-28
1643558994764,8568.7574956,-97
1643558994764,8568.7574986,-42
1643558994764,8568.7575017,386
1643558994764,8568.7575048,930
1643558994764,8568.7575078,956
1643558994786,8568.7575108,369
1643558994786,8568.757514,-23
1643558994786,8568.757517,54
1643558994786,8568.75752,52
1643558994786,8568.7575232,-87
1643558994786,8568.7575293,-106
1643558994786,8568.7575326,-99
1643558994786,8568.7575375,-149
1643558994786,8568.7575407,-156
1643558994786,8568.7575456,-118
1643558994808,8568.7575487,-111
1643558994808,8568.7575523,-120
1643558994808,8568.7575575,-111
1643558994808,8568.7575608,-101
1643558994808,8568.7575656,-97
1643558994808,8568.7575689,-85
1643558994808,8568.7575738,-68
1643558994808,8568.757577,-59
1643558994808,8568.7575818,-49
1643558994808,8568.757585,-28
1643558994830,8568.7575899,-18
1643558994830,8568.7575931,-30
1643558994830,8568.757598,-18
1643558994830,8568.7576012,9
1643558994830,8568.7576061,18
1643558994830,8568.7576092,21
1643558994830,8568.757614,35
1643558994830,8568.7576172,52
1643558994830,8568.7576221,71
1643558994830,8568.7576253,89
1643558994852,8568.75763,97
1643558994852,8568.7576332,106
1643558994852,8568.7576381,120
1643558994852,8568.7576413,108
1643558994852,8568.7576461,89
1643558994852,8568.7576493,104
1643558994852,8568.7576542,118
1643558994852,8568.7576575,111
1643558994852,8568.7576624,99
1643558994852,8568.7576656,78
1643558994875,8568.7576712,54
1643558994875,8568.7576744,28
1643558994875,8568.7576792,2
1643558994875,8568.7576824,-14
1643558995118,8568.7576876,-23
1643558995118,8568.7576907,-23
1643558995118,8568.7576937,-23
1643558995118,8568.7576967,-40
1643558995118,8568.7576996,-35
1643558995118,8568.7577025,-14
1643558995118,8568.7577054,-21
1643558995118,8568.7577083,-30
1643558995118,8569.1596839,-18
1643558995118,8569.1596965,-14
1643558995141,8569.1597001,-21
1643558995141,8569.1597034,-9
1643558995141,8569.1597086,9
1643558995141,8569.1597124,9
1643558995141,8569.1597173,-4
1643558995141,8569.1597205,-4
1643558995141,8569.1597254,2
1643558995141,8569.1597305,2
1643558995141,8569.1597354,0
1643558995141,8569.1597386,9
1643558995163,8569.1597418,14
1643558995163,8569.1597468,2
1643558995163,8569.1597515,-21
1643558995163,8569.1597563,-28
1643558995163,8569.15976,-26
1643558995163,8569.1597648,-26
1643558995163,8569.1597679,-26
1643558995163,8569.1597728,-23
1643558995163,8569.1597759,-23
1643558995163,8569.1597806,-21
1643558995186,8569.1597838,-16
1643558995186,8569.1597887,-21
1643558995186,8569.1597919,-47
1643558995186,8569.1597969,-71
1643558995186,8569.1598,-89
1643558995186,8569.1598031,-99
1643558995186,8569.1598084,-71
1643558995186,8569.1598115,-16
1643558995186,8569.1598147,28
1643558995186,8569.1598187,30
1643558995207,8569.1598219,7
1643558995207,8569.1598273,11
1643558995207,8569.1598305,35
1643558995207,8569.1598361,18
1643558995207,8569.1598394,-26
1643558995207,8569.1598437,-54
1643558995207,8569.1598487,-49
1643558995207,8569.1598532,-42
1643558995207,8569.1598579,-42
1643558995207,8569.1598611,-37
1643558995228,8569.159866,-35
1643558995228,8569.1598699,-56
1643558995228,8569.1598748,-106
1643558995228,8569.1598781,-16
1643558995228,8569.1598833,390
1643558995228,8569.1598865,928
1643558995228,8569.1598913,999
1643558995228,8569.1598954,431
1643558995228,8569.1598985,2
1643558995228,8569.1599034,75
1643558995251,8569.159908,99
1643558995251,8569.1599128,-54
1643558995251,8569.1599174,-113
1643558995251,8569.1599222,-104
1643558995251,8569.1599272,-127
1643558995251,8569.1599319,-137
1643558995251,8569.1599358,-118
1643558995251,8569.1599407,-108
1643558995251,8569.1599439,-113
1643558995251,8569.1599486,-101
1643558995273,8569.1599518,-85
1643558995273,8569.1599566,-82
1643558995273,8569.1599597,-78
1643558995273,8569.159965,-68
1643558995630,8569.1599681,-54
1643558995630,8569.1599712,-35
1643558995630,8569.1599742,-23
1643558995630,8569.1599776,-23
1643558995630,8569.1599806,-9
1643558995630,8569.1599836,4
1643558995630,8569.1599864,-14
1643558995630,8569.6643133,-21
1643558995630,8569.6643248,21
1643558995630,8569.6643284,52
1643558995652,8569.6643317,44
1643558995652,8569.6643348,56
1643558995652,8569.6643378,78
1643558995652,8569.6643409,75
1643558995652,8569.6643439,71
1643558995652,8569.664347,75
1643558995652,8569.66435,87
1643558995652,8569.6643531,85
1643558995652,8569.6643561,71
1643558995652,8569.6643592,75
1643558995673,8569.6643623,68
1643558995673,8569.6643653,47
1643558995673,8569.6643682,35
1643558995673,8569.6643713,16
1643558995673,8569.6643753,-16
1643558995673,8569.6643783,-37
1643558995673,8569.6644027,-52
1643558995673,8569.6644223,-61
1643558995673,8569.6644271,-52
1643558995673,8569.6644307,-47
1643558995696,8569.6644338,-52
1643558995696,8569.664437,-37
1643558995696,8569.6644401,-35
1643558995696,8569.6644432,-59
1643558995696,8569.6644463,-59
1643558995696,8569.6644493,-33
1643558995696,8569.6644524,-26
1643558995696,8569.6644554,-40
1643558995696,8569.6644584,-30
1643558995696,8569.6644615,-7
1643558995719,8569.6644645,-11
1643558995719,8569.6644675,-16
1643558995719,8569.6644706,-9
1643558995719,8569.6644736,-11
1643558995719,8569.6644767,-11
1643558995719,8569.6644798,0
1643558995719,8569.6644829,0
1643558995719,8569.6644859,-7
1643558995719,8569.664489,-2
1643558995719,8569.6644921,4
1643558995740,8569.6644952,-9
1643558995740,8569.6644982,-11
1643558995740,8569.6645013,-9
1643558995740,8569.6645043,-16
1643558995740,8569.6645074,-4
1643558995740,8569.6645105,9
1643558995740,8569.6645135,-4
1643558995740,8569.6645166,-16
1643558995740,8569.6645196,-28
1643558995740,8569.6645226,-37
1643558995763,8569.6645257,-23
1643558995763,8569.6645287,-14
1643558995763,8569.6645317,-33
1643558995763,8569.6645347,-28
1643558995763,8569.6645378,26
1643558995763,8569.6645408,71
1643558995763,8569.664544,68
1643558995763,8569.664547,44
1643558995763,8569.66455,56
1643558995763,8569.6645534,66
1643558995784,8569.6645564,35
1643558995784,8569.6645595,7
1643558995784,8569.6645626,4
1643558995784,8569.6645657,-2
1643558996231,8569.6645691,-18
1643558996231,8569.6645722,-16
1643558996231,8569.6645753,-11
1643558996231,8569.6645784,-18
1643558996231,8569.6645814,-37
1643558996231,8569.6645844,-82
1643558996231,8570.2587195,-9
1643558996231,8570.2587322,381
1643558996231,8570.2587375,888
1643558996231,8570.2587437,916
1643558996254,8570.2587486,357
1643558996254,8570.258752,-14
1643558996254,8570.2587572,66
1643558996254,8570.2587606,80
1643558996254,8570.2587657,-47
1643558996254,8570.2587691,-97
1643558996254,8570.2587741,-130
1643558996254,8570.2587775,-163
1643558996254,8570.2587829,-144
1643558996254,8570.2587864,-123
1643558996274,8570.2587914,-130
1643558996274,8570.2587948,-127
1643558996274,8570.2587998,-113
1643558996274,8570.2588032,-104
1643558996274,8570.2588251,-92
1643558996274,8570.2588301,-80
1643558996274,8570.2588333,-68
1643558996274,8570.2588364,-66
1643558996274,8570.2588395,-61
1643558996274,8570.2588518,-44
1643558996297,8570.2588667,-26
1643558996297,8570.2588711,-18
1643558996297,8570.2588744,-11
1643558996297,8570.2588774,-4
1643558996297,8570.2588803,-16
1643558996297,8570.2588841,-11
1643558996297,8570.2588871,18
1643558996297,8570.25889,42
1643558996297,8570.2588929,56
1643558996297,8570.2588958,68
1643558996318,8570.2588986,73
1643558996318,8570.2589015,82
1643558996318,8570.2589044,87
1643558996318,8570.2589072,89
1643558996318,8570.2589101,99
1643558996318,8570.258913,104
1643558996318,8570.2589159,101
1643558996318,8570.2589188,101
1643558996318,8570.2589217,92
1643558996318,8570.2589245,63
1643558996340,8570.2589274,40
1643558996340,8570.2589848,26
1643558996340,8570.2589894,7
1643558996340,8570.2589925,-9
1643558996340,8570.2589954,-18
1643558996340,8570.2589984,-21
1643558996340,8570.2590013,-4
1643558996340,8570.2590043,9
1643558996340,8570.2590072,-28
1643558996340,8570.2590102,-66
1643558996363,8570.2590131,-35
1643558996363,8570.2590169,0
1643558996363,8570.2590202,-9
1643558996363,8570.2590232,-7
1643558996363,8570.2590262,2
1643558996363,8570.2590291,-4
1643558996363,8570.2590508,-7
1643558996363,8570.2590544,2
1643558996363,8570.2590575,4
1643558996363,8570.2590604,-2
1643558996388,8570.2590634,2
1643558996388,8570.2590663,16
1643558996388,8570.2590693,11
1643558996388,8570.2590722,-7
1643558996830,8570.2590751,-11
1643558996830,8570.2591028,0
1643558996830,8570.259108,2
1643558996830,8570.2591574,0
1643558996830,8570.2591629,7
1643558996830,8570.860884,7
1643558996830,8570.8608955,0
1643558996830,8570.8608994,-7
1643558996830,8570.8609026,-4
1643558996830,8570.8609057,-4
1643558996851,8570.8609088,-14
1643558996851,8570.860912,-14
1643558996851,8570.8609166,-4
1643558996851,8570.8609196,-37
1643558996851,8570.8609227,-85
1643558996851,8570.8609258,-71
1643558996851,8570.8609288,-21
1643558996851,8570.8609318,18
1643558996851,8570.8609348,42
1643558996851,8570.8609378,35
1643558996873,8570.8609409,21
1643558996873,8570.8609439,23
1643558996873,8570.8609474,16
1643558996873,8570.8609504,-16
1643558996873,8570.8609535,-28
1643558996873,8570.8609565,-28
1643558996873,8570.8609595,-42
1643558996873,8570.8609625,-42
1643558996873,8570.8609655,-30
1643558996873,8570.8609685,-35
1643558996895,8570.8609716,-35
1643558996895,8570.8609746,-59
1643558996895,8570.8609776,-89
1643558996895,8570.8609806,97
1643558996895,8570.8609902,568
1643558996895,8570.861008,949
1643558996895,8570.8610129,745
1643558996895,8570.8610164,184
1643558996895,8570.8610197,-14
1643558996895,8570.8610229,82
1643558996917,8570.8610262,30
1643558996917,8570.8610293,-68
1643558996917,8570.8610324,-82
1643558996917,8570.8610355,-97
1643558996917,8570.8610385,-113
1643558996917,8570.8610417,-99
1643558996917,8570.8610447,-87
1643558996917,8570.861048,-85
1643558996917,8570.8610513,-78
1643558996917,8570.8610568,-68
1643558996940,8570.8610602,-66
1643558996940,8570.8610654,-56
1643558996940,8570.8610692,-44
1643558996940,8570.8610742,-40
1643558996940,8570.8610777,-26
1643558996940,8570.8610831,-11
1643558996940,8570.8610865,-14
1643558996940,8570.8610915,-14
1643558996940,8570.8610949,0
1643558996940,8570.8610999,9
1643558996962,8570.8611032,18
1643558996962,8570.8611082,26
1643558996962,8570.8611116,33
1643558996962,8570.8611165,52
1643558996962,8570.8611199,63
1643558996962,8570.8611248,68
1643558996962,8570.8611282,85
1643558996962,8570.8611336,97
1643558996962,8570.861137,97
1643558996962,8570.8611421,111
1643558996985,8570.8611454,120
1643558996985,8570.8611505,113
1643558996985,8570.8611538,113
1643558996985,8570.8611589,118
1643558997342,8570.8611621,106
1643558997342,8570.8611653,85
1643558997342,8570.8611684,66
1643558997342,8570.8611715,37
1643558997342,8571.3631667,14
1643558997342,8571.3631783,-2
1643558997342,8571.363182,-16
1643558997342,8571.3631856,-18
1643558997342,8571.3631885,-11
1643558997342,8571.3631914,-26
1643558997363,8571.3631943,-35
1643558997363,8571.3631972,-18
1643558997363,8571.3632001,-11
1643558997363,8571.363203,-18
1643558997363,8571.3632059,-18
1643558997363,8571.3632088,-11
1643558997363,8571.3632117,-21
1643558997363,8571.3632341,-30
1643558997363,8571.363244,-21
1643558997363,8571.3632484,-14
1643558997385,8571.3632523,-11
1643558997385,8571.3632557,-4
1643558997385,8571.3632587,-7
1643558997385,8571.3632616,-21
1643558997385,8571.3632645,-18
1643558997385,8571.3632674,-9
1643558997385,8571.3632703,-11
1643558997385,8571.3632732,-16
1643558997385,8571.3632761,-7
1643558997385,8571.3632791,0
1643558997406,8571.363282,-7
1643558997406,8571.3632859,-16
1643558997406,8571.3632888,-14
1643558997406,8571.3632917,-9
1643558997406,8571.3632947,-7
1643558997406,8571.3632977,-2
1643558997406,8571.3633006,0
1643558997406,8571.3633035,-16
1643558997406,8571.3633064,-37
1643558997406,8571.3633094,-28
1643558997428,8571.3633124,-14
1643558997428,8571.3633154,-28
1643558997428,8571.3633183,-28
1643558997428,8571.3633215,23
1643558997428,8571.3633245,71
1643558997428,8571.3633274,61
1643558997428,8571.3633303,42
1643558997428,8571.3633332,54
1643558997428,8571.3633367,56
1643558997428,8571.3633398,28
1643558997451,8571.3633427,7
1643558997451,8571.3633457,0
1643558997451,8571.3633486,-14
1643558997451,8571.3633515,-23
1643558997451,8571.3633545,-18
1643558997451,8571.3633575,-16
1643558997451,8571.3633604,-18
1643558997451,8571.3633633,-33
1643558997451,8571.3633662,-66
1643558997451,8571.3633691,21
1643558997475,8571.3633722,426
1643558997475,8571.3633752,923
1643558997475,8571.3633781,897
1643558997475,8571.363381,305
1643558997475,8571.3633843,-54
1643558997475,8571.3633871,11
1643558997475,8571.3633901,4
1643558997475,8571.363393,-68
1643558997475,8571.3633959,-52
1643558997475,8571.3633989,-73
1643558997496,8571.3634019,-111
1643558997496,8571.3634048,-87
1643558997496,8571.3634077,-61
1643558997496,8571.3634108,-73
1643558997874,8571.3634137,-75
1643558997874,8571.3634167,-56
1643558997874,8571.3634205,-47
1643558997874,8571.9132367,-54
1643558997874,8571.9132729,-56
1643558997874,8571.9132781,-54
1643558997874,8571.9132834,-44
1643558997874,8571.9132866,-28
1643558997874,8571.9132899,-9
1643558997874,8571.9132949,2
1643558997896,8571.913299,9
1643558997896,8571.9133039,18
1643558997896,8571.9133078,33
1643558997896,8571.9133127,37
1643558997896,8571.913316,23
1643558997896,8571.9133193,11
1643558997896,8571.9133242,23
1643558997896,8571.9133282,59
1643558997896,8571.9133336,87
1643558997896,8571.913337,80
1643558997923,8571.913342,80
1643558997923,8571.9133454,97
1643558997923,8571.9133509,97
1643558997923,8571.9133542,97
1643558997923,8571.9133592,111
1643558997923,8571.9133643,113
1643558997923,8571.9133692,111
1643558997923,8571.9133731,97
1643558997923,8571.9133779,59
1643558997923,8571.9133821,28
1643558997944,8571.9133869,11
1643558997944,8571.9133917,-9
1643558997944,8571.9133966,-28
1643558997944,8571.9134006,-33
1643558997944,8571.9134056,-35
1643558997944,8571.9134096,-47
1643558997944,8571.9134147,-52
1643558997944,8571.913418,-33
1643558997944,8571.9134229,-23
1643558997944,8571.9134264,-37
1643558997971,8571.9134311,-40
1643558997971,8571.9134343,-23
1643558997971,8571.9134376,-18
1643558997971,8571.9134424,-16
1643558997971,8571.913447,-9
1643558997971,8571.9134519,-14
1643558997971,8571.9134568,-16
1643558997971,8571.9134617,-14
1643558997971,8571.9134656,-7
1643558997971,8571.9134704,4
1643558997995,8571.9134743,7
1643558997995,8571.9134793,-7
1643558997995,8571.9134826,-9
1643558997995,8571.9134875,2
1643558997995,8571.9134914,0
1643558997995,8571.9134967,-7
1643558997995,8571.9134999,4
1643558997995,8571.9135047,7
1643558997995,8571.9135095,-2
1643558997995,8571.9135144,0
1643558998014,8571.9135176,9
1643558998014,8571.9135225,11
1643558998014,8571.913527,0
1643558998014,8571.9135318,-4
1643558998014,8571.9135349,-7
1643558998014,8571.9135398,-14
1643558998014,8571.913543,-26
1643558998014,8571.9135479,-40
1643558998014,8571.9135512,-44
1643558998014,8571.9135545,-30
1643558998032,8571.9135594,2
1643558998032,8571.9135627,61
1643558998032,8571.9135676,82
1643558998032,8571.9135709,52
1643558998522,8571.9135742,52
1643558998522,8571.9135772,71
1643558998522,8572.5576361,52
1643558998522,8572.5576497,18
1643558998522,8572.5576537,0
1643558998522,8572.5576584,7
1643558998522,8572.5576614,11
1643558998522,8572.5576644,-9
1643558998522,8572.5576674,-18
1643558998522,8572.5576704,-2
1643558998542,8572.5576735,-16
1643558998542,8572.5576787,-82
1643558998542,8572.5576819,-61
1643558998542,8572.557687,262
1643558998542,8572.5576902,776
1643558998542,8572.5576953,937
1643558998542,8572.5576985,473
1643558998542,8572.5577035,7
1643558998542,8572.5577073,11
1643558998542,8572.5577105,59
1643558998564,8572.5577147,-54
1643558998564,8572.5577176,-87
1643558998564,8572.5577205,-68
1643558998564,8572.5577237,-111
1643558998564,8572.5577277,-132
1643558998564,8572.5577308,-113
1643558998564,8572.5577337,-113
1643558998564,8572.557738,-111
1643558998564,8572.5577412,-80
1643558998564,8572.5577456,-63
1643558998586,8572.5577487,-80
1643558998586,8572.5577517,-94
1643558998586,8572.5577561,-85
1643558998586,8572.5577592,-56
1643558998586,8572.5577622,-40
1643558998586,8572.5577682,-37
1643558998586,8572.5577733,-35
1643558998586,8572.5577764,-26
1643558998586,8572.5577813,-16
1643558998586,8572.5577846,-11
1643558998609,8572.5577894,0
1643558998609,8572.5577926,18
1643558998609,8572.5577976,33
1643558998609,8572.5578007,40
1643558998609,8572.5578057,52
1643558998609,8572.5578088,68
1643558998609,8572.5578141,80
1643558998609,8572.5578173,89
1643558998609,8572.5578223,99
1643558998609,8572.5578254,106
1643558998630,8572.5578302,108
1643558998630,8572.5578333,111
1643558998630,8572.5578381,108
1643558998630,8572.5578412,106
1643558998630,8572.5578461,101
1643558998630,8572.5578493,78
1643558998630,8572.557854,44
1643558998630,8572.5578574,23
1643558998630,8572.5578623,4
1643558998630,8572.5578655,-28
1643558998652,8572.5578703,-42
1643558998652,8572.5578736,-33
1643558998652,8572.5578785,-30
1643558998652,8572.5578818,-33
1643558998652,8572.5578869,-26
1643558998652,8572.55789,-21
1643558998652,8572.557895,-21
1643558998652,8572.5578981,-18
1643558998652,8572.5579032,-7
1643558998652,8572.5579063,0
1643558998674,8572.5579112,-16
1643558998674,8572.5579143,-26
1643558998674,8572.5579189,-2
1643558998674,8572.557922,4
1643558999030,8572.5579269,-4
1643558999030,8573.059649,7
1643558999030,8573.0596611,16
1643558999030,8573.0596653,0
1643558999030,8573.0596686,4
1643558999030,8573.0596717,23
1643558999030,8573.0596748,18
1643558999030,8573.0596779,14
1643558999030,8573.0596809,23
1643558999030,8573.0596841,-2
1643558999052,8573.0596872,-37
1643558999052,8573.0596902,-26
1643558999052,8573.0596933,-9
1643558999052,8573.0596964,-18
1643558999052,8573.0596994,-21
1643558999052,8573.0597025,-18
1643558999052,8573.0597056,-23
1643558999052,8573.0597091,-26
1643558999052,8573.0597129,-30
1643558999052,8573.0597159,-44
1643558999074,8573.059719,-40
1643558999074,8573.0597221,-35
1643558999074,8573.0597253,-49
1643558999074,8573.0597283,-28
1643558999074,8573.0597315,33
1643558999074,8573.0597345,66
1643558999074,8573.0597376,54
1643558999074,8573.0597411,42
1643558999074,8573.0597445,54
1643558999074,8573.0597476,44
1643558999096,8573.0597506,2
1643558999096,8573.0597537,-30
1643558999096,8573.0597568,-28
1643558999096,8573.0597598,-11
1643558999096,8573.0597629,-16
1643558999096,8573.059766,-21
1643558999096,8573.0598195,-11
1643558999096,8573.0598351,7
1643558999096,8573.0598396,-26
1643558999096,8573.0598429,-80
1643558999118,8573.059846,118
1643558999118,8573.0598492,622
1643558999118,8573.0598524,980
1643558999118,8573.0598555,708
1643558999118,8573.0598585,127
1643558999118,8573.0598617,-56
1643558999118,8573.0598648,9
1643558999118,8573.0598679,-44
1643558999118,8573.0598713,-68
1643558999118,8573.0598743,-40
1643558999140,8573.0598781,-68
1643558999140,8573.0598811,-82
1643558999140,8573.0598842,-52
1643558999140,8573.0598872,-54
1643558999140,8573.0598903,-68
1643558999140,8573.0598933,-52
1643558999140,8573.0598963,-40
1643558999140,8573.0598994,-35
1643558999140,8573.0599026,-21
1643558999140,8573.0599056,-9
1643558999162,8573.0599241,-4
1643558999162,8573.0599292,-2
1643558999162,8573.0599324,4
1643558999162,8573.0599358,16
1643558999162,8573.0599389,35
1643558999162,8573.059942,47
1643558999162,8573.059945,56
1643558999162,8573.0599482,66
1643558999162,8573.0599512,75
1643558999162,8573.0599543,92
1643558999185,8573.0599573,106
1643558999185,8573.0599604,123
1643558999185,8573.0599634,144
1643558999185,8573.0599664,158
1643559000185,8573.5633581,170
1643559000185,8573.5634129,184
1643559000185,8573.5634224,189
1643559000185,8573.5634263,182
1643559000185,8573.5634315,182
1643559000185,8573.5634355,182
1643559000185,8573.5634387,165
1643559000185,8573.5634418,137
1643559000185,8573.5634447,104
1643559000185,8573.5634477,66
1643559000208,8573.5634511,33
1643559000208,8573.5634549,7
1643559000208,8573.5634595,-18
1643559000208,8573.5634627,-42
1643559000208,8573.5634667,-49
1643559000208,8573.5634698,-42
1643559000208,8573.5634748,-42
1643559000208,8573.5634797,-47
1643559000208,8573.5634847,-44
1643559000208,8573.5634878,-40
1643559000229,8573.5634909,-47
1643559000229,8573.5634949,-42
1643559000229,8573.5634981,-16
1643559000229,8573.5635031,-7
1643559000229,8573.5635062,-28
1643559000229,8573.5635093,-44
1643559000229,8573.5635134,-26
1643559000229,8573.5635166,-4
1643559000229,8573.5635214,2
1643559000229,8573.5635251,4
1643559000252,8573.5635302,9
1643559000252,8573.5635338,14
1643559000252,8573.5635382,21
1643559000252,8573.5635414,21
1643559000252,8573.5635462,18
1643559000252,8573.5635494,18
1643559000252,8573.5635544,16
1643559000252,8573.5635589,11
1643559000252,8573.5635638,16
1643559000252,8573.5635676,16
1643559000274,8573.5635707,11
1643559000274,8573.563575,14
1643559000274,8573.5635782,11
1643559000274,8573.5635834,2
1643559000274,8573.5635865,7
1643559000274,8573.5635897,0
1643559000274,8573.5635947,-26
1643559000274,8573.5635996,-30
1643559000274,8573.5636045,-26
1643559000274,8573.5636091,-28
1643559000296,8573.5636139,7
1643559000296,8573.5636171,71
1643559000296,8573.563622,94
1643559000296,8573.5636267,68
1643559000296,8573.5636315,56
1643559000296,8573.5636345,78
1643559000296,8573.5636376,71
1643559000296,8573.5636425,35
1643559000296,8573.5636472,16
1643559000296,8573.5636522,11
1643559000318,8573.5636567,11
1643559000318,8573.5636616,9
1643559000318,8573.5636654,4
1643559000318,8573.5636702,9
1643559000318,8573.5636746,9
1643559000318,8573.5636795,-42
1643559000318,8573.5636826,-59
1643559000318,8573.5636867,189
1643559000318,8573.5636899,719
1643559000318,8573.5636948,1070
1643559000341,8573.5636979,745
1643559000341,8573.5637021,142
1643559000341,8573.5637054,-2
1643559000341,8574.2088034,66
1643559000722,8574.2088149,-28
1643559000722,8574.2088185,-80
1643559000722,8574.2088218,-49
1643559000722,8574.2088249,-78
1643559000722,8574.208828,-123
1643559000722,8574.208831,-123
1643559000722,8574.2088341,-116
1643559000722,8574.208837,-116
1643559000722,8574.2088401,-108
1643559000722,8574.2088431,-92
1643559000740,8574.2088461,-80
1643559000740,8574.2088491,-82
1643559000740,8574.2088521,-85
1643559000740,8574.208855,-73
1643559000740,8574.208858,-61
1643559000740,8574.208861,-54
1643559000740,8574.208864,-42
1643559000740,8574.2088671,-30
1643559000740,8574.2088704,-23
1643559000740,8574.2088734,-9
1643559000764,8574.2088765,7
1643559000764,8574.2088796,16
1643559000764,8574.2088826,30
1643559000764,8574.2088855,49
1643559000764,8574.2088885,66
1643559000764,8574.2088915,80
1643559000764,8574.2088946,92
1643559000764,8574.2088977,104
1643559000764,8574.2089007,108
1643559000764,8574.2089037,113
1643559000786,8574.2089066,118
1643559000786,8574.2089097,123
1643559000786,8574.2089127,127
1643559000786,8574.2089157,118
1643559000786,8574.2089188,101
1643559000786,8574.2089219,85
1643559000786,8574.2089249,63
1643559000786,8574.2089279,26
1643559000786,8574.2089311,-4
1643559000786,8574.2089344,-16
1643559000808,8574.2089407,-18
1643559000808,8574.2089448,-23
1643559000808,8574.208948,-26
1643559000808,8574.2089523,-28
1643559000808,8574.2089556,-30
1643559000808,8574.2089608,-30
1643559000808,8574.2089657,-26
1643559000808,8574.2089707,-16
1643559000808,8574.2089745,-14
1643559000808,8574.2089794,-14
1643559000831,8574.2089827,-11
1643559000831,8574.2089882,-7
1643559000831,8574.2090723,-7
1643559000831,8574.2090794,2
1643559000831,8574.209083,18
1643559000831,8574.209088,14
1643559000831,8574.2090914,2
1643559000831,8574.2090963,4
1643559000831,8574.2090996,11
1643559000831,8574.2091045,16
1643559000852,8574.2091078,14
1643559000852,8574.209111,16
1643559000852,8574.2091164,18
1643559000852,8574.2091429,14
1643559000852,8574.2091485,7
1643559000852,8574.2091518,4
1643559000852,8574.2091569,9
1643559000852,8574.2091609,11
1643559000852,8574.2091659,9
1643559000852,8574.2091691,4
1643559000874,8574.2091739,2
1643559000874,8574.2091785,4
1643559000874,8574.7603757,0
1643559000874,8574.7603882,-11
1643559001274,8574.7603918,-16
1643559001274,8574.7603948,-16
1643559001274,8574.7603977,-26
1643559001274,8574.7604006,-40
1643559001274,8574.7604034,-18
1643559001274,8574.7604062,35
1643559001274,8574.760409,73
1643559001274,8574.7604118,61
1643559001274,8574.7604147,30
1643559001274,8574.7604175,26
1643559001296,8574.7604204,23
1643559001296,8574.7604233,-4
1643559001296,8574.7604261,-28
1643559001296,8574.7604292,-28
1643559001296,8574.7604322,-35
1643559001296,8574.7604352,-44
1643559001296,8574.7604393,-42
1643559001296,8574.7604444,-42
1643559001296,8574.7604495,-49
1643559001296,8574.7604543,-78
1643559001319,8574.7604572,-113
1643559001319,8574.7604604,26
1643559001319,8574.7604652,454
1643559001319,8574.7604696,866
1643559001319,8574.7604745,741
1643559001319,8574.7604774,208
1643559001319,8574.7604804,-30
1643559001319,8574.7604846,35
1643559001319,8574.7604877,4
1643559001319,8574.7604925,-68
1643559001341,8574.7604954,-73
1643559001341,8574.7604984,-87
1643559001341,8574.7605026,-111
1643559001341,8574.7605057,-104
1643559001341,8574.760511,-92
1643559001341,8574.7605161,-94
1643559001341,8574.7605209,-85
1643559001341,8574.7605248,-71
1643559001341,8574.7605298,-63
1643559001341,8574.760534,-59
1643559001363,8574.7605389,-49
1643559001363,8574.7605418,-42
1643559001363,8574.7605449,-40
1643559001363,8574.7605481,-28
1643559001363,8574.7605518,-16
1643559001363,8574.7605549,-18
1643559001363,8574.7605598,-14
1643559001363,8574.7605626,4
1643559001363,8574.7605657,18
1643559001363,8574.7605699,21
1643559001384,8574.7605729,30
1643559001384,8574.7605778,49
1643559001384,8574.7605824,71
1643559001384,8574.7605873,82
1643559001384,8574.7605919,94
1643559001384,8574.7605967,111
1643559001384,8574.7606,120
1643559001384,8574.7606047,120
1643559001384,8574.7606085,127
1643559001384,8574.7606135,134
1643559001406,8574.7606169,134
1643559001406,8574.76062,132
1643559001406,8574.7606251,130
1643559001406,8574.7606281,108
1643559001406,8574.7606311,66
1643559001406,8574.7606358,35
1643559001406,8574.7606406,16
1643559001406,8574.7606451,-9
1643559001406,8574.7606481,-30
1643559001406,8574.7606511,-37
1643559001429,8574.7606542,-37
1643559001429,8575.3123628,-42
1643559001429,8575.3123762,-40
1643559001429,8575.31238,-33
1643559001830,8575.3123838,-35
1643559001830,8575.3123869,-33
1643559001830,8575.31239,-26
1643559001830,8575.3123931,-28
1643559001830,8575.3123961,-28
1643559001830,8575.3124059,-26
1643559001830,8575.3124102,-37
1643559001830,8575.3124133,-47
1643559001830,8575.3124164,-35
1643559001830,8575.3124248,-26
1643559001851,8575.3124284,-28
1643559001851,8575.3124314,-28
1643559001851,8575.3124344,-28
1643559001851,8575.3124374,-37
1643559001851,8575.3124405,-40
1643559001851,8575.3124435,-33
1643559001851,8575.3124465,-30
1643559001851,8575.3124496,-33
1643559001851,8575.3124527,-30
1643559001851,8575.3124561,-30
1643559001873,8575.3124591,-28
1643559001873,8575.3124621,-21
1643559001873,8575.3124651,-21
1643559001873,8575.3124682,-23
1643559001873,8575.3124716,-21
1643559001873,8575.3124761,-26
1643559001873,8575.3124816,-28
1643559001873,8575.3124849,-28
1643559001873,8575.3124899,-30
1643559001873,8575.312493,-33
1643559001896,8575.3124962,-33
1643559001896,8575.3125007,-37
1643559001896,8575.312504,-44
1643559001896,8575.3125095,-30
1643559001896,8575.3125133,16
1643559001896,8575.3125183,59
1643559001896,8575.3125217,66
1643559001896,8575.312527,54
1643559001896,8575.3125302,56
1643559001896,8575.3125334,49
1643559001919,8575.3125384,16
1643559001919,8575.3125425,-11
1643559001919,8575.3125477,-14
1643559001919,8575.312551,-7
1643559001919,8575.3125561,-9
1643559001919,8575.3125593,-11
1643559001919,8575.3125644,-9
1643559001919,8575.3125678,-7
1643559001919,8575.3125728,-26
1643559001919,8575.3125761,-75
1643559001942,8575.3125811,-23
1643559001942,8575.3125845,300
1643559001942,8575.3125887,755
1643559001942,8575.3125919,854
1643559001942,8575.3125949,412
1643559001942,8575.312598,21
1643559001942,8575.312601,28
1643559001942,8575.3126041,44
1643559001942,8575.3126071,-33
1643559001942,8575.3126102,-44
1643559001963,8575.3126132,-54
1643559001963,8575.3126162,-99
1643559001963,8575.3126193,-99
1643559001963,8575.3126223,-80
1643559001963,8575.3126256,-82
1643559001963,8575.3126286,-78
1643559001963,8575.3126317,-63
1643559001963,8575.3126347,-56
1643559001963,8575.3126377,-44
1643559001963,8575.3126407,-30
1643559001985,8575.8617997,-33
1643559001985,8575.8618227,-35
1643559001985,8575.8618291,-23
1643559001985,8575.8618326,-14
1643559002340,8575.8618359,-2
1643559002340,8575.8618391,16
1643559002340,8575.8618422,18
1643559002340,8575.8618453,11
1643559002340,8575.8618484,26
1643559002340,8575.8618516,56
1643559002340,8575.8618548,73
1643559002340,8575.8618579,78
1643559002340,8575.861861,97
1643559002340,8575.8618641,118
1643559002363,8575.8618673,108
1643559002363,8575.8618704,99
1643559002363,8575.8618734,113
1643559002363,8575.8618765,125
1643559002363,8575.8618796,125
1643559002363,8575.8618827,130
1643559002363,8575.8618858,130
1643559002363,8575.8618889,118
1643559002363,8575.8618921,101
1643559002363,8575.8618952,75
1643559002385,8575.8618983,37
1643559002385,8575.8619014,11
1643559002385,8575.8619045,-9
1643559002385,8575.8619077,-35
1643559002385,8575.8619108,-47
1643559002385,8575.8619139,-47
1643559002385,8575.8619171,-47
1643559002385,8575.8619202,-49
1643559002385,8575.8619232,-47
1643559002385,8575.8619263,-40
1643559002407,8575.8619294,-37
1643559002407,8575.8619325,-33
1643559002407,8575.8619355,-26
1643559002407,8575.8619387,-21
1643559002407,8575.861995,-18
1643559002407,8575.8619988,-18
1643559002407,8575.862002,-14
1643559002407,8575.8620053,-4
1643559002407,8575.8620088,-4
1643559002407,8575.862015,-7
1643559002429,8575.8620185,7
1643559002429,8575.8620236,18
1643559002429,8575.8620268,14
1643559002429,8575.8620301,7
1643559002429,8575.8620332,11
1643559002429,8575.8620364,18
1643559002429,8575.8620396,16
1643559002429,8575.8620428,9
1643559002429,8575.8620459,7
1643559002429,8575.8620491,4
1643559002451,8575.8620523,0
1643559002451,8575.8620555,-4
1643559002451,8575.8620586,-11
1643559002451,8575.8620617,-7
1643559002451,8575.8620648,2
1643559002451,8575.8620679,-9
1643559002451,8575.8620711,-14
1643559002451,8575.8620742,0
1643559002451,8575.8620774,-9
1643559002451,8575.8620805,-30
1643559002473,8575.8620837,-23
1643559002473,8575.8620868,-18
1643559002473,8575.8620899,-37
1643559002473,8575.8620931,-16
1643559002473,8575.8620963,49
1643559002473,8575.8620994,87
1643559002473,8575.8621025,71
1643559002473,8575.8621057,56
1643559002473,8575.8621089,71
1643559002473,8576.3632839,63
1643559002496,8576.3632988,21
1643559002496,8576.3633055,2
1643559002496,8576.3633109,9
1643559002496,8576.3633143,9
1643559002918,8576.3633218,-4
1643559002918,8576.363325,-18
1643559002918,8576.3633281,-16
1643559002918,8576.3633311,-9
1643559002918,8576.3633343,-28
1643559002918,8576.3633374,-71
1643559002918,8576.3633405,61
1643559002918,8576.3633439,511
1643559002918,8576.3633471,959
1643559002918,8576.3633501,798
1643559002940,8576.3633532,108
1643559002940,8576.3633563,-222
1643559002940,8576.3633595,-113
1643559002940,8576.3633626,-120
1643559002940,8576.3633657,-144
1643559002940,8576.3633688,-52
1643559002940,8576.3633718,-49
1643559002940,8576.3633749,-97
1643559002940,8576.3633781,-75
1643559002940,8576.3633814,-56
1643559002964,8576.3633845,-66
1643559002964,8576.3634011,-56
1643559002964,8576.3634136,-42
1643559002964,8576.3634175,-37
1643559002964,8576.3634206,-42
1643559002964,8576.3634237,-33
1643559002964,8576.3634267,-11
1643559002964,8576.3634298,0
1643559002964,8576.3634328,0
1643559002964,8576.3634359,4
1643559002986,8576.3634389,16
1643559002986,8576.3634419,30
1643559002986,8576.3634449,42
1643559002986,8576.3634479,54
1643559002986,8576.363451,66
1643559002986,8576.363454,80
1643559002986,8576.3634572,101
1643559002986,8576.3634602,113
1643559002986,8576.3634633,123
1643559002986,8576.3634663,151
1643559003008,8576.3634694,175
1643559003008,8576.3634724,184
1643559003008,8576.3634754,187
1643559003008,8576.3634784,194
1643559003008,8576.3634815,194
1643559003008,8576.3634845,189
1643559003008,8576.3634875,182
1643559003008,8576.3634905,158
1643559003008,8576.3634935,123
1643559003008,8576.3634965,87
1643559003032,8576.3634995,54
1643559003032,8576.3635026,21
1643559003032,8576.3635056,-7
1643559003032,8576.3635087,-28
1643559003032,8576.3635118,-42
1643559003032,8576.3635149,-44
1643559003032,8576.3635178,-35
1643559003032,8576.3635208,-33
1643559003032,8576.3635238,-37
1643559003032,8576.3635268,-37
1643559003051,8576.3635303,-35
1643559003051,8576.3635335,-35
1643559003051,8576.3635366,-28
1643559003051,8576.3635396,-21
1643559003051,8576.363543,-11
1643559003051,8576.363546,-7
1643559003051,8576.3636106,-9
1643559003051,8576.3636164,-2
1643559003051,8576.9611435,9
1643559003051,8576.9611583,7
1643559003074,8576.9611643,2
1643559003074,8576.961168,4
1643559003074,8576.9611733,-4
1643559003074,8576.9611767,-23
1643559003474,8576.9611817,-26
1643559003474,8576.9611849,-11
1643559003474,8576.961188,-16
1643559003474,8576.961191,-26
1643559003474,8576.961194,-23
1643559003474,8576.961197,-23
1643559003474,8576.9612,-30
1643559003474,8576.9612369,-28
1643559003474,8576.961241,-16
1643559003474,8576.961244,-16
1643559003496,8576.9612482,-26
1643559003496,8576.9612515,-30
1643559003496,8576.9612545,-26
1643559003496,8576.9612579,-21
1643559003496,8576.961262,-23
1643559003496,8576.9612655,-28
1643559003496,8576.9612688,-35
1643559003496,8576.9612718,-47
1643559003496,8576.9612759,-40
1643559003496,8576.9612793,0
1643559003517,8576.9612823,56
1643559003517,8576.9612861,80
1643559003517,8576.9612894,59
1643559003517,8576.961293,42
1643559003517,8576.9612964,61
1643559003517,8576.9613002,56
1643559003517,8576.9613037,16
1643559003517,8576.9613072,0
1643559003517,8576.9613111,2
1643559003517,8576.9613149,4
1643559003541,8576.9613182,4
1643559003541,8576.9613212,4
1643559003541,8576.9613249,0
1643559003541,8576.9613288,2
1643559003541,8576.9613321,-33
1643559003541,8576.9613357,-82
1643559003541,8576.961339,85
1643559003541,8576.9613425,575
1643559003541,8576.9613454,999
1643559003541,8576.9613484,800
1643559003562,8576.961352,201
1643559003562,8576.9613555,-18
1643559003562,8576.9613585,54
1643559003562,8576.9613614,-16
1643559003562,8576.9613644,-80
1643559003562,8576.9613679,-59
1643559003562,8576.9613715,-85
1643559003562,8576.9613753,-108
1643559003562,8576.9613787,-85
1643559003562,8576.9613819,-78
1643559003585,8576.9613848,-78
1643559003585,8576.9613883,-71
1643559003585,8576.9613919,-68
1643559003585,8576.9613954,-59
1643559003585,8576.9613983,-44
1643559003585,8576.9614012,-35
1643559003585,8576.961405,-35
1643559003585,8576.9614095,-33
1643559003585,8576.9614136,-26
1643559003585,8576.9614197,-11
1643559003607,8576.9614231,-2
1643559003607,8576.9614291,2
1643559003607,8576.9614324,18
1643559003607,8576.9614383,37
1643559003607,8576.9614418,42
1643559003607,8576.9614477,47
1643559003607,8576.9614521,63
1643559003607,8577.5132936,87
1643559003607,8577.5133064,104
1643559003607,8577.5133105,113
1643559003628,8577.5133161,111
1643559003628,8577.5133196,120
1643559003628,8577.513325,137
1643559003628,8577.5133285,142
1643559004228,8577.5133337,137
1643559004228,8577.513337,139
1643559004228,8577.5133402,125
1643559004228,8577.5133433,87
1643559004228,8577.5133464,59
1643559004228,8577.5133495,35
1643559004228,8577.5133527,0
1643559004228,8577.5133558,-23
1643559004228,8577.513359,-35
1643559004228,8577.513362,-54
1643559004251,8577.5133651,-66
1643559004251,8577.5133683,-56
1643559004251,8577.5133714,-44
1643559004251,8577.5133745,-44
1643559004251,8577.5133776,-52
1643559004251,8577.5133807,-44
1643559004251,8577.5133839,-35
1643559004251,8577.5133873,-37
1643559004251,8577.5133904,-33
1643559004251,8577.5133935,-26
1643559004273,8577.5133966,-21
1643559004273,8577.5133997,-16
1643559004273,8577.5134028,-18
1643559004273,8577.5134063,-18
1643559004273,8577.5134097,-16
1643559004273,8577.5134151,-16
1643559004273,8577.5134185,-16
1643559004273,8577.5134236,-16
1643559004273,8577.5134269,-21
1643559004273,8577.513432,-23
1643559004295,8577.5134353,-14
1643559004295,8577.5134403,-16
1643559004295,8577.513444,-30
1643559004295,8577.513449,-28
1643559004295,8577.5134524,-21
1643559004295,8577.5135171,-23
1643559004295,8577.5135227,-18
1643559004295,8577.513526,-11
1643559004295,8577.5135294,-16
1643559004295,8577.5135325,-18
1643559004318,8577.5135356,-11
1643559004318,8577.5135387,-9
1643559004318,8577.5135419,-11
1643559004318,8577.5135567,-9
1643559004318,8577.5135707,-7
1643559004318,8577.5135786,-7
1643559004318,8577.5135825,0
1643559004318,8577.5135879,0
1643559004318,8577.5135915,-11
1643559004318,8577.5135967,-21
1643559004340,8577.5136001,-21
1643559004340,8577.5136213,-18
1643559004340,8577.5136293,4
1643559004340,8577.5136355,56
1643559004340,8577.5136389,94
1643559004340,8577.513644,80
1643559004340,8577.5136474,59
1643559004340,8577.5136525,75
1643559004340,8577.5136558,78
1643559004340,8577.5136608,42
1643559004362,8577.5136641,21
1643559004362,8577.5136692,21
1643559004362,8577.5136726,16
1643559004362,8577.5136777,9
1643559004362,8577.513681,4
1643559004362,8577.5136862,0
1643559004362,8578.2604291,2
1643559004362,8578.2604413,-16
1643559004362,8578.2604467,-73
1643559004362,8578.2604519,11
1643559004384,8578.2604552,409
1643559004384,8578.26046,911
1643559004384,8578.2604629,963
1643559004384,8578.260466,426
1643559004674,8578.260471,26
1643559004674,8578.2604739,68
1643559004674,8578.260477,71
1643559004674,8578.2604808,-56
1643559004674,8578.2604837,-101
1643559004674,8578.2604865,-104
1643559004674,8578.2604895,-125
1643559004674,8578.2604923,-127
1643559004674,8578.2604952,-113
1643559004674,8578.2604981,-106
1643559004696,8578.2605009,-97
1643559004696,8578.2605043,-92
1643559004696,8578.2605076,-87
1643559004696,8578.260511,-82
1643559004696,8578.2605316,-75
1643559004696,8578.2605396,-66
1643559004696,8578.2605433,-54
1643559004696,8578.2605483,-44
1643559004696,8578.2605515,-42
1643559004696,8578.2605564,-42
1643559004717,8578.2605594,-35
1643559004717,8578.2605625,-21
1643559004717,8578.2605666,-11
1643559004717,8578.2605697,-4
1643559004717,8578.2605745,9
1643559004717,8578.2605775,21
1643559004717,8578.2605806,30
1643559004717,8578.2605854,49
1643559004717,8578.2605885,73
1643559004717,8578.2605932,89
1643559004740,8578.2605963,94
1643559004740,8578.2606011,101
1643559004740,8578.2606044,113
1643559004740,8578.2606075,120
1643559004740,8578.2606124,125
1643559004740,8578.2606165,123
1643559004740,8578.2606212,111
1643559004740,8578.2606255,97
1643559004740,8578.2606302,78
1643559004740,8578.2606336,44
1643559004764,8578.2606366,16
1643559004764,8578.2606416,0
1643559004764,8578.2606449,-9
1643559004764,8578.260648,-18
1643559004764,8578.2606528,-23
1643559004764,8578.260656,-23
1643559004764,8578.260661,-23
1643559004764,8578.2606641,-21
1643559004764,8578.260669,-18
1643559004764,8578.2606723,-14
1643559004785,8578.2606771,-4
1643559004785,8578.2606805,-7
1643559004785,8578.260686,-14
1643559004785,8578.2606892,-11
1643559004785,8578.2606939,-7
1643559004785,8578.2606969,-9
1643559004785,8578.2607,-11
1643559004785,8578.2607048,-14
1643559004785,8578.260708,-11
1643559004785,8578.2607127,-9
1643559004806,8578.260716,-9
1643559004806,8578.2607209,-11
1643559004806,8578.2607247,-11
1643559004806,8578.2607295,-9
1643559004806,8578.2607326,-7
1643559004806,8578.713488,-7
1643559004806,8578.7135012,-7
1643559004806,8578.7135056,-4
1643559004806,8578.7135096,-2
1643559004806,8578.7135126,-2
1643559004829,8578.7135161,-2
1643559004829,8578.713519,0
1643559004829,8578.713522,-4
1643559004829,8578.7135253,-9
1643559005274,8578.713529,0
1643559005274,8578.7135324,9
1643559005274,8578.7135353,9
1643559005274,8578.7135381,4
1643559005274,8578.713541,-2
1643559005274,8578.7135439,-7
1643559005274,8578.7135476,-9
1643559005274,8578.7135505,-11
1643559005274,8578.7135543,-11
1643559005274,8578.713558,-18
1643559005296,8578.7135608,-35
1643559005296,8578.713564,-37
1643559005296,8578.7135673,2
1643559005296,8578.7135709,59
1643559005296,8578.7135739,75
1643559005296,8578.7135775,54
1643559005296,8578.713581,44
1643559005296,8578.7135844,49
1643559005296,8578.7135875,23
1643559005296,8578.7135904,-4
1643559005317,8578.7135937,-9
1643559005317,8578.7135966,-11
1643559005317,8578.7136,-23
1643559005317,8578.7136028,-33
1643559005317,8578.7136057,-37
1643559005317,8578.7136091,-33
1643559005317,8578.7136132,-33
1643559005317,8578.7136173,-73
1643559005317,8578.7136203,-104
1643559005317,8578.7136243,82
1643559005340,8578.7136278,551
1643559005340,8578.7136309,935
1643559005340,8578.713634,724
1643559005340,8578.7136373,146
1643559005340,8578.7136401,-44
1643559005340,8578.7136441,47
1643559005340,8578.7136477,-16
1643559005340,8578.7136507,-82
1643559005340,8578.7136536,-59
1643559005340,8578.7136572,-89
1643559005363,8578.7136604,-123
1643559005363,8578.7136676,-94
1643559005363,8578.7136739,-75
1643559005363,8578.7136782,-82
1643559005363,8578.7137097,-75
1643559005363,8578.7137165,-68
1643559005363,8578.7137206,-71
1643559005363,8578.7137238,-54
1643559005363,8578.7137274,-37
1643559005363,8578.7137305,-40
1643559005384,8578.7137336,-37
1643559005384,8578.7137367,-26
1643559005384,8578.7137397,-16
1643559005384,8578.7137428,-11
1643559005384,8578.713746,2
1643559005384,8578.7137491,16
1643559005384,8578.7137521,21
1643559005384,8578.7137552,30
1643559005384,8578.7137582,54
1643559005384,8578.7137612,68
1643559005407,8578.7137643,78
1643559005407,8578.7137674,97
1643559005407,8578.7137705,118
1643559005407,8578.7137735,123
1643559005407,8579.3135495,134
1643559005407,8579.3135616,151
1643559005407,8579.3135661,151
1643559005407,8579.3135713,149
1643559005407,8579.3135744,156
1643559005407,8579.3135795,151
1643559005429,8579.3135836,130
1643559005429,8579.3135878,111
1643559005429,8579.313591,87
1643559005429,8579.3135941,49
1643559005740,8579.3135972,11
1643559005740,8579.3136003,-14
1643559005740,8579.3136035,-37
1643559005740,8579.3136065,-49
1643559005740,8579.3136096,-40
1643559005740,8579.3136126,-35
1643559005740,8579.3136157,-37
1643559005740,8579.3136187,-52
1643559005740,8579.3136218,-78
1643559005740,8579.3136249,-87
1643559005763,8579.3136279,-66
1643559005763,8579.3136309,-54
1643559005763,8579.3136338,-63
1643559005763,8579.3136368,-71
1643559005763,8579.3136399,-68
1643559005763,8579.3136429,-56
1643559005763,8579.3136459,-49
1643559005763,8579.3136489,-52
1643559005763,8579.3136519,-47
1643559005763,8579.3136549,-37
1643559005786,8579.3136579,-37
1643559005786,8579.3136621,-37
1643559005786,8579.3136654,-28
1643559005786,8579.3136713,-18
1643559005786,8579.3136746,-11
1643559005786,8579.3136798,-9
1643559005786,8579.3136831,-14
1643559005786,8579.3136884,-18
1643559005786,8579.3136925,-11
1643559005786,8579.3136958,0
1643559005807,8579.3137014,-7
1643559005807,8579.3137048,-18
1643559005807,8579.3137082,-4
1643559005807,8579.3137112,9
1643559005807,8579.3137144,2
1643559005807,8579.3137188,-2
1643559005807,8579.313724,4
1643559005807,8579.3137274,9
1643559005807,8579.3137324,4
1643559005807,8579.3137355,9
1643559005830,8579.3137387,4
1643559005830,8579.3137438,-7
1643559005830,8579.3137776,-4
1643559005830,8579.3137844,-9
1643559005830,8579.3137879,-16
1643559005830,8579.3137913,0
1643559005830,8579.313796,35
1643559005830,8579.3137992,75
1643559005830,8579.3138025,104
1643559005830,8579.3138091,97
1643559005852,8579.3138125,75
1643559005852,8579.3138155,85
1643559005852,8579.3138185,87
1643559005852,8579.3138215,54
1643559005852,8579.3138244,30
1643559005852,8579.3138274,33
1643559005852,8579.3138395,30
1643559005852,8579.3138563,23
1643559005852,8579.3138621,23
1643559005852,8579.3138658,28
1643559005874,8579.31387,28
1643559005874,8579.3138731,-9
1643559005874,8579.3138764,-40
1643559005874,8579.7640042,149
1643559005874,8579.7640177,660
1643559005874,8579.7640218,1105
1643559005874,8579.7640274,828
1643559005874,8579.764031,78
1643559005874,8579.7640362,-179
1643559005874,8579.7640397,-35
1643559005896,8579.7640451,-59
1643559005896,8579.7640485,-87
1643559005896,8579.7640535,-23
1643559005896,8579.7640567,-54
1643559006275,8579.7640601,-99
1643559006275,8579.7640633,-63
1643559006275,8579.7640665,-47
1643559006275,8579.7640696,-63
1643559006275,8579.7640727,-54
1643559006275,8579.7640758,-35
1643559006275,8579.7640789,-33
1643559006275,8579.764082,-37
1643559006275,8579.764085,-26
1643559006275,8579.7640881,-7
1643559006296,8579.7640912,2
1643559006296,8579.7640943,0
1643559006296,8579.7640974,-18
1643559006296,8579.7641005,-30
1643559006296,8579.7641036,-14
1643559006296,8579.7641066,9
1643559006296,8579.76411,18
1643559006296,8579.764113,33
1643559006296,8579.764116,44
1643559006296,8579.7641191,49
1643559006318,8579.7641222,66
1643559006318,8579.7641252,89
1643559006318,8579.7641282,106
1643559006318,8579.7641313,120
1643559006318,8579.7641343,134
1643559006318,8579.7641376,139
1643559006318,8579.7641408,137
1643559006318,8579.7641454,146
1643559006318,8579.7641496,153
1643559006318,8579.764153,144
1643559006346,8579.7641583,125
1643559006346,8579.7641616,99
1643559006346,8579.7641664,66
1643559006346,8579.7641696,40
1643559006346,8579.7641729,16
1643559006346,8579.7641779,-4
1643559006346,8579.7641811,-26
1643559006346,8579.7641861,-35
1643559006346,8579.7641894,-42
1643559006346,8579.7641943,-40
1643559006365,8579.764198,-30
1643559006365,8579.7642029,-35
1643559006365,8579.7642061,-42
1643559006365,8579.7642094,-33
1643559006365,8579.7642143,-28
1643559006365,8579.7642175,-35
1643559006365,8579.7642208,-40
1643559006365,8579.7642258,-33
1643559006365,8579.7642291,-26
1643559006365,8579.7642336,-21
1643559006384,8579.7642369,-18
1643559006384,8579.7642418,-16
1643559006384,8579.7642451,-9
1643559006384,8579.7642501,-7
1643559006384,8579.7642539,-11
1643559006384,8579.7642588,-7
1643559006384,8579.7642629,-2
1643559006384,8579.764268,-11
1643559006384,8579.7642719,-11
1643559006384,8579.7642753,-7
1643559006406,8579.7642801,-11
1643559006406,8579.7642835,-21
1643559006406,8580.3134903,-16
1643559006406,8580.3135019,-14
1643559006406,8580.3135053,-16
1643559006406,8580.3135083,-16
1643559006406,8580.3135112,-7
1643559006406,8580.3135141,-4
1643559006406,8580.3135171,-7
1643559006406,8580.3135199,-9
1643559006428,8580.3135228,-14
1643559006428,8580.3135257,-37
1643559006428,8580.3135285,-52
1643559006428,8580.3135314,-33
1643559006874,8580.3135343,-28
1643559006874,8580.3135371,-44
1643559006874,8580.31354,-47
1643559006874,8580.3135428,-42
1643559006874,8580.3135457,-52
1643559006874,8580.3135485,-59
1643559006874,8580.3135515,-26
1643559006874,8580.3135547,30
1643559006874,8580.3135576,66
1643559006874,8580.3135605,56
1643559006906,8580.3135637,40
1643559006906,8580.3135666,56
1643559006906,8580.3135695,59
1643559006906,8580.3135725,18
1643559006906,8580.3135754,-7
1643559006906,8580.3135783,-9
1643559006906,8580.3135811,-14
1643559006906,8580.3135841,-16
1643559006906,8580.313587,-14
1643559006906,8580.3135899,-11
1643559006924,8580.3135928,-11
1643559006924,8580.3135957,-40
1643559006924,8580.3135986,-87
1643559006924,8580.3136015,28
1643559006924,8580.3136044,457
1643559006924,8580.3136074,937
1643559006924,8580.3136103,911
1643559006924,8580.3136132,343
1643559006924,8580.3136161,4
1643559006924,8580.313619,87
1643559006943,8580.313622,66
1643559006943,8580.3136249,-59
1643559006943,8580.3136278,-68
1643559006943,8580.3136308,-68
1643559006943,8580.3136337,-106
1643559006943,8580.3136366,-101
1643559006943,8580.3136395,-85
1643559006943,8580.3136426,-85
1643559006943,8580.3136458,-73
1643559006943,8580.3136487,-66
1643559006963,8580.3136516,-66
1643559006963,8580.3136548,-59
1643559006963,8580.3136578,-44
1643559006963,8580.3136608,-42
1643559006963,8580.3136637,-37
1643559006963,8580.3136666,-23
1643559006963,8580.3136696,-18
1643559006963,8580.3136725,-21
1643559006963,8580.3136755,-9
1643559006963,8580.3136784,7
1643559006985,8580.3136813,14
1643559006985,8580.3136842,16
1643559006985,8580.3136871,18
1643559006985,8580.31369,35
1643559006985,8580.3137195,52
1643559006985,8580.3137268,61
1643559006985,8580.3137303,82
1643559006985,8580.3137334,99
1643559006985,8580.3137363,106
1643559006985,8580.3137392,113
1643559007008,8580.3137421,123
1643559007008,8580.9135044,127
1643559007008,8580.9135291,123
1643559007008,8580.9135335,118
1643559007008,8580.9135368,113
1643559007008,8580.9135399,97
1643559007008,8580.913543,71
1643559007008,8580.9135461,40
1643559007008,8580.9135492,-4
1643559007008,8580.9135524,-54
1643559007029,8580.9135559,-73
1643559007029,8580.9135621,-68
1643559007029,8580.9135655,-71
1643559007029,8580.9135706,-78
1643559007430,8580.913574,-73
1643559007430,8580.9135772,-71
1643559007430,8580.9135803,-71
1643559007430,8580.9135833,-63
1643559007430,8580.9135864,-61
1643559007430,8580.9135895,-61
1643559007430,8580.9135926,-56
1643559007430,8580.9135956,-59
1643559007430,8580.9135986,-63
1643559007430,8580.9136017,-52
1643559007452,8580.9136048,-37
1643559007452,8580.9136083,-40
1643559007452,8580.9136113,-40
1643559007452,8580.9136143,-30
1643559007452,8580.9136173,-28
1643559007452,8580.9136204,-30
1643559007452,8580.9136236,-21
1643559007452,8580.9136266,-14
1643559007452,8580.9136296,-14
1643559007452,8580.9136327,-14
1643559007474,8580.913638,-14
1643559007474,8580.9136414,-9
1643559007474,8580.9136457,-2
1643559007474,8580.9136489,-4
1643559007474,8580.913654,-7
1643559007474,8580.9136573,0
1643559007474,8580.9136604,2
1643559007474,8580.9136657,0
1643559007474,8580.9136689,2
1643559007474,8580.9136719,9
1643559007496,8580.9136753,11
1643559007496,8580.9136803,9
1643559007496,8580.9136837,4
1643559007496,8580.9136887,7
1643559007496,8580.9136929,11
1643559007496,8580.9136978,7
1643559007496,8580.9137011,2
1643559007496,8580.9137053,0
1643559007496,8580.9137106,-2
1643559007496,8580.9137139,-11
1643559007518,8580.913719,-16
1643559007518,8580.9137224,9
1643559007518,8580.9137274,54
1643559007518,8580.9137312,82
1643559007518,8580.9137362,73
1643559007518,8580.91374,66
1643559007518,8580.9137449,73
1643559007518,8580.9137489,61
1643559007518,8580.9137539,33
1643559007518,8580.9137579,18
1643559007541,8580.913763,14
1643559007541,8580.9137672,9
1643559007541,8580.9137722,9
1643559007541,8580.9137771,9
1643559007541,8580.9137821,9
1643559007541,8580.9137854,4
1643559007541,8580.9137904,-11
1643559007541,8580.913795,-56
1643559007541,8580.9138,4
1643559007541,8580.9138033,362
1643559007563,8581.4632358,843
1643559007563,8581.4632605,904
1643559007563,8581.463268,402
1643559007563,8581.4632735,28
1643559007563,8581.463277,89
1643559007563,8581.4632822,101
1643559007563,8581.4632854,-28
1643559007563,8581.4632886,-68
1643559007563,8581.4632935,-68
1643559007563,8581.4632966,-101
1643559007585,8581.4632998,-106
1643559007585,8581.4633039,-89
1643559007585,8581.4633071,-111
1643559007585,8581.4633119,-134
1643559007986,8581.463315,-120
1643559007986,8581.4633181,-104
1643559007986,8581.4633211,-111
1643559007986,8581.4633241,-101
1643559007986,8581.463327,-85
1643559007986,8581.4633299,-80
1643559007986,8581.4633329,-78
1643559007986,8581.4633358,-61
1643559007986,8581.4633606,-47
1643559007986,8581.4633727,-35
1643559008007,8581.4633767,-30
1643559008007,8581.46338,-28
1643559008007,8581.4633845,-21
1643559008007,8581.4633907,-2
1643559008007,8581.463394,21
1643559008007,8581.4633972,35
1643559008007,8581.4634022,49
1643559008007,8581.463407,61
1643559008007,8581.4634118,71
1643559008007,8581.463415,82
1643559008029,8581.4634198,94
1643559008029,8581.4634244,104
1643559008029,8581.4634292,113
1643559008029,8581.4634324,118
1643559008029,8581.4634373,111
1643559008029,8581.4634404,99
1643559008029,8581.4634435,78
1643559008029,8581.4634483,44
1643559008029,8581.4634531,21
1643559008029,8581.463458,0
1643559008052,8581.4634629,-28
1643559008052,8581.4634678,-49
1643559008052,8581.4634708,-61
1643559008052,8581.463475,-71
1643559008052,8581.4634781,-80
1643559008052,8581.4634829,-85
1643559008052,8581.4634874,-80
1643559008052,8581.4634922,-73
1643559008052,8581.4634967,-68
1643559008052,8581.4635016,-66
1643559008073,8581.4635054,-59
1643559008073,8581.4635102,-54
1643559008073,8581.4635131,-59
1643559008073,8581.4635163,-52
1643559008073,8581.4635217,-37
1643559008073,8581.4635249,-42
1643559008073,8581.46353,-44
1643559008073,8581.4635332,-30
1643559008073,8581.4635381,-23
1643559008073,8581.4635426,-26
1643559008095,8581.4635474,-21
1643559008095,8581.4635518,-14
1643559008095,8581.4635566,-7
1643559008095,8581.4635598,-9
1643559008095,8581.4635648,-16
1643559008095,8581.4635685,-18
1643559008095,8581.4635732,-14
1643559008095,8581.4635764,-9
1643559008095,8581.4635812,-11
1643559008095,8582.01309,-16
1643559008119,8582.0131023,-14
1643559008119,8582.0131061,-4
1643559008119,8582.0131094,-2
1643559008119,8582.0131146,-7
1643559008119,8582.0131189,-9
1643559008119,8582.0131222,-4
1643559008119,8582.0131274,4
1643559008119,8582.0131305,9
1643559008119,8582.0131337,7
1643559008119,8582.0131384,-9
1643559008143,8582.013143,-30
1643559008143,8582.0131477,-40
1643559008143,8582.0131523,-35
1643559008143,8582.0131571,-40
1643559008540,8582.0131603,-44
1643559008540,8582.0131635,-44
1643559008540,8582.0131665,-49
1643559008540,8582.0131695,-33
1643559008540,8582.0131725,16
1643559008540,8582.0131755,66
1643559008540,8582.0131786,66
1643559008540,8582.0131816,44
1643559008540,8582.0131846,52
1643559008540,8582.0131875,59
1643559008563,8582.0131906,28
1643559008563,8582.0131937,-4
1643559008563,8582.0131967,-7
1643559008563,8582.0131997,0
1643559008563,8582.0132034,0
1643559008563,8582.0132066,-4
1643559008563,8582.0132117,-9
1643559008563,8582.0132147,-11
1643559008563,8582.013218,-23
1643559008563,8582.0132228,-66
1643559008585,8582.0132259,-7
1643559008585,8582.0132308,338
1643559008585,8582.013234,800
1643559008585,8582.0132389,862
1643559008585,8582.0132421,362
1643559008585,8582.0132471,-21
1643559008585,8582.0132511,28
1643559008585,8582.0132562,35
1643559008585,8582.0132595,-59
1643559008585,8582.0132644,-52
1643559008607,8582.0132676,-52
1643559008607,8582.0132724,-89
1643559008607,8582.0132756,-85
1643559008607,8582.0132805,-68
1643559008607,8582.0132835,-66
1643559008607,8582.0132867,-63
1643559008607,8582.0132916,-56
1643559008607,8582.0132965,-47
1643559008607,8582.0133013,-33
1643559008607,8582.0134227,-30
1643559008628,8582.0134334,-30
1643559008628,8582.0134373,-16
1643559008628,8582.0134408,-2
1643559008628,8582.0134442,2
1643559008628,8582.0134474,7
1643559008628,8582.0134506,18
1643559008628,8582.0134601,28
1643559008628,8582.0134632,40
1643559008628,8582.0134676,52
1643559008628,8582.0134709,61
1643559008651,8582.0134749,75
1643559008651,8582.0134779,87
1643559008651,8582.0134811,92
1643559008651,8582.0134852,108
1643559008651,8582.0134885,137
1643559008651,8582.0134925,142
1643559008651,8582.0134954,142
1643559008651,8582.0134986,156
1643559008651,8582.5632637,163
1643559008651,8582.5632753,165
1643559008673,8582.5632789,161
1643559008673,8582.563282,151
1643559008673,8582.5632854,132
1643559008673,8582.5632883,97
1643559008673,8582.5632912,61
1643559008673,8582.5632941,40
1643559008673,8582.563297,18
1643559008673,8582.5633,-18
1643559008673,8582.5633028,-52
1643559008673,8582.5633057,-66
1643559008696,8582.5633086,-68
1643559008696,8582.5633114,-68
1643559008696,8582.5633142,-59
1643559008696,8582.5633171,-59
1643559009229,8582.56332,-61
1643559009229,8582.5633229,-49
1643559009229,8582.5633257,-40
1643559009229,8582.5633286,-44
1643559009229,8582.5633315,-40
1643559009229,8582.5633343,-28
1643559009229,8582.5633372,-23
1643559009229,8582.5633412,-23
1643559009229,8582.5633443,-18
1643559009229,8582.5633474,-9
1643559009252,8582.5633504,-2
1643559009252,8582.5633533,2
1643559009252,8582.5633562,9
1643559009252,8582.5633591,4
1643559009252,8582.563362,-2
1643559009252,8582.5633649,7
1643559009252,8582.5633678,21
1643559009252,8582.5633707,21
1643559009252,8582.5633736,9
1643559009252,8582.5633765,4
1643559009274,8582.5633794,4
1643559009274,8582.5633822,2
1643559009274,8582.5633851,7
1643559009274,8582.5633879,21
1643559009274,8582.5633908,28
1643559009274,8582.5633937,21
1643559009274,8582.5633966,14
1643559009274,8582.5633994,18
1643559009274,8582.5634024,30
1643559009274,8582.5634055,30
1643559009296,8582.5634083,30
1643559009296,8582.5634113,26
1643559009296,8582.5634171,18
1643559009296,8582.5634216,11
1643559009296,8582.5634248,9
1643559009296,8582.5634277,7
1643559009296,8582.5634306,26
1643559009296,8582.5634634,71
1643559009296,8582.5634881,111
1643559009296,8582.563492,106
1643559009317,8582.563495,82
1643559009317,8582.5634979,92
1643559009317,8582.5635009,108
1643559009317,8582.5635039,78
1643559009317,8582.5635068,40
1643559009317,8582.5635098,35
1643559009317,8582.5635128,35
1643559009317,8582.5635178,35
1643559009317,8582.5635646,40
1643559009317,8582.5635773,35
1643559009339,8582.5635811,30
1643559009339,8582.5635848,21
1643559009339,8582.5635879,-28
1643559009339,8582.5635909,28
1643559009339,8582.5635945,400
1643559009339,8582.5635977,933
1643559009339,8582.5636033,1023
1643559009339,8583.257438,400
1643559009339,8583.2574505,-132
1643559009339,8583.2574543,-75
1643559009361,8583.2574596,-14
1643559009361,8583.2574629,-82
1643559009361,8583.2574678,-23
1643559009361,8583.2574712,2
1643559009361,8583.2574759,-71
1643559009361,8583.2574793,-89
1643559009361,8583.2574841,-66
1643559009361,8583.2574873,-68
1643559009361,8583.257492,-71
1643559009361,8583.2574958,-54
1643559009384,8583.2575006,-49
1643559009384,8583.2575043,-52
1643559009384,8583.2575092,-40
1643559009384,8583.2575129,-26
1643559009630,8583.2575179,-26
1643559009630,8583.2575219,-21
1643559009630,8583.2575249,-7
1643559009630,8583.257528,7
1643559009630,8583.257531,11
1643559009630,8583.2575369,14
1643559009630,8583.25754,23
1643559009630,8583.257543,40
1643559009630,8583.257546,61
1643559009630,8583.257549,68
1643559009652,8583.2575577,71
1643559009652,8583.2575611,85
1643559009652,8583.257564,104
1643559009652,8583.257567,123
1643559009652,8583.2575699,139
1643559009652,8583.2575728,144
1643559009652,8583.2575757,142
1643559009652,8583.2575786,142
1643559009652,8583.2575815,151
1643559009652,8583.2575844,151
1643559009673,8583.2575873,139
1643559009673,8583.2575902,118
1643559009673,8583.2575931,87
1643559009673,8583.257596,54
1643559009673,8583.257599,28
1643559009673,8583.2576022,-4
1643559009673,8583.257606,-37
1643559009673,8583.2576093,-44
1643559009673,8583.2576123,-47
1643559009673,8583.2576152,-59
1643559009694,8583.2576181,-66
1643559009694,8583.2576209,-61
1643559009694,8583.2576239,-49
1643559009694,8583.2576268,-49
1643559009694,8583.2576298,-54
1643559009694,8583.2576327,-49
1643559009694,8583.2576356,-35
1643559009694,8583.2576385,-35
1643559009694,8583.2576414,-42
1643559009694,8583.2576444,-35
1643559009718,8583.2576474,-21
1643559009718,8583.2576503,-16
1643559009718,8583.2576532,-14
1643559009718,8583.2576562,-7
1643559009718,8583.2576591,-7
1643559009718,8583.2576621,-7
1643559009718,8583.257665,4
1643559009718,8583.257668,11
1643559009718,8583.257671,2
1643559009718,8583.2576739,-2
1643559009740,8583.2576769,4
1643559009740,8583.2576798,11
1643559009740,8583.2576828,9
1643559009740,8583.2576857,7
1643559009740,8583.2576887,7
1643559009740,8583.257692,11
1643559009740,8583.6637101,14
1643559009740,8583.6637218,16
1643559009740,8583.6637256,11
1643559009740,8583.6637289,9
1643559009764,8583.663732,4
1643559009764,8583.6637351,2
1643559009764,8583.6637383,2
1643559009764,8583.6637414,2
1643559009764,8583.6637446,-2
1643559009764,8583.6637477,-9
1643559009764,8583.6637509,-14
1643559009764,8583.6637539,-18
1643559009764,8583.6637571,-30
1643559009764,8583.6637602,-40
1643559009784,8583.6637635,-16
1643559009784,8583.6637666,35
1643559009784,8583.6637697,56
1643559009784,8583.6637729,33
1643559010274,8583.663776,26
1643559010274,8583.6637791,42
1643559010274,8583.6637823,26
1643559010274,8583.6637854,-9
1643559010274,8583.6637885,-21
1643559010274,8583.6637916,-23
1643559010274,8583.6637947,-28
1643559010274,8583.6637978,-26
1643559010274,8583.6638009,-21
1643559010274,8583.663804,-21
1643559010297,8583.6638074,-30
1643559010297,8583.6638105,-75
1643559010297,8583.6638136,-92
1643559010297,8583.6638168,132
1643559010297,8583.66382,632
1643559010297,8583.6638235,996
1643559010297,8583.6638267,715
1643559010297,8583.6638298,123
1643559010297,8583.6638329,-21
1643559010297,8583.6638361,82
1643559010321,8583.6638392,-9
1643559010321,8583.6638671,-104
1643559010321,8583.6638728,-87
1643559010321,8583.6638763,-97
1643559010321,8583.6638797,-123
1643559010321,8583.6638832,-111
1643559010321,8583.6638864,-94
1643559010321,8583.6638896,-92
1643559010321,8583.6638927,-89
1643559010321,8583.6638958,-82
1643559010341,8583.6638989,-75
1643559010341,8583.663902,-63
1643559010341,8583.6639052,-56
1643559010341,8583.6639082,-52
1643559010341,8583.6639113,-44
1643559010341,8583.6639144,-35
1643559010341,8583.6639176,-28
1643559010341,8583.6639207,-16
1643559010341,8583.6639238,-7
1643559010341,8583.6639269,-2
1643559010365,8583.6639301,7
1643559010365,8583.6639332,23
1643559010365,8583.6639365,35
1643559010365,8583.6639397,49
1643559010365,8583.663943,66
1643559010365,8583.6639461,82
1643559010365,8583.6639492,94
1643559010365,8583.6639524,106
1643559010365,8583.6639559,120
1643559010365,8583.6639591,125
1643559010385,8583.6639623,125
1643559010385,8583.6639656,132
1643559010385,8583.6639687,130
1643559010385,8583.6639719,116
1643559010385,8583.6639752,99
1643559010385,8584.3088276,82
1643559010385,8584.3088418,56
1643559010385,8584.3088458,23
1643559010385,8584.3088515,-7
1643559010385,8584.3088551,-30
1643559010407,8584.3088602,-61
1643559010407,8584.3088638,-87
1643559010407,8584.308869,-89
1643559010407,8584.3088725,-85
1643559010407,8584.3088776,-82
1643559010407,8584.308881,-75
1643559010407,8584.3088862,-71
1643559010407,8584.3088897,-82
1643559010407,8584.3088949,-85
1643559010407,8584.3088984,-75
1643559010429,8584.3089036,-66
1643559010429,8584.3089071,-63
1643559010429,8584.3089124,-59
1643559010429,8584.308916,-52
1643559010872,8584.3089212,-49
1643559010872,8584.3089245,-52
1643559010872,8584.3089278,-47
1643559010872,8584.3089309,-33
1643559010872,8584.3089342,-21
1643559010872,8584.3089373,-23
1643559010872,8584.3089404,-28
1643559010872,8584.3089436,-26
1643559010872,8584.3089467,-26
1643559010872,8584.3089499,-30
1643559010897,8584.3089531,-26
1643559010897,8584.3089562,-14
1643559010897,8584.3089593,-9
1643559010897,8584.3089625,-14
1643559010897,8584.3089657,-21
1643559010897,8584.3089688,-14
1643559010897,8584.3089721,0
1643559010897,8584.3089753,2
1643559010897,8584.3089791,-7
1643559010897,8584.3089823,-11
1643559010918,8584.3089854,-7
1643559010918,8584.3089886,4
1643559010918,8584.3089917,9
1643559010918,8584.3089949,7
1643559010918,8584.3089982,4
1643559010918,8584.3090029,-9
1643559010918,8584.3090088,-14
1643559010918,8584.3090122,-2
1643559010918,8584.309018,-11
1643559010918,8584.3090215,-14
1643559010941,8584.3090269,30
1643559010941,8584.3090303,82
1643559010941,8584.3090355,94
1643559010941,8584.309039,73
1643559010941,8584.3090441,68
1643559010941,8584.3090475,87
1643559010941,8584.3090527,71
1643559010941,8584.309056,30
1643559010941,8584.3090611,16
1643559010941,8584.3090645,16
1643559010963,8584.3090695,7
1643559010963,8584.3090729,7
1643559010963,8584.3090792,16
1643559010963,8584.3090827,14
1643559010963,8584.3090893,7
1643559010963,8584.3090935,-37
1643559010963,8584.3090981,-49
1643559010963,8584.3091014,198
1643559010963,8584.3091052,703
1643559010963,8584.3091091,1011
1643559010985,8584.309115,651
1643559010985,8584.3091196,54
1643559010985,8584.3091265,-52
1643559010985,8584.3091305,40
1643559010985,8584.9091252,-37
1643559010985,8584.9091372,-54
1643559010985,8584.909141,-16
1643559010985,8584.9091441,-61
1643559010985,8584.9091471,-89
1643559010985,8584.9091503,-66
1643559011008,8584.9091532,-56
1643559011008,8584.9091561,-61
1643559011008,8584.909159,-54
1643559011008,8584.9091619,-42
1643559011008,8584.9091648,-54
1643559011008,8584.9091677,-66
1643559011008,8584.9091706,-52
1643559011008,8584.9091735,-35
1643559011008,8584.9091764,-33
1643559011008,8584.9091792,-30
1643559011029,8584.9091821,-21
1643559011029,8584.909185,-7
1643559011029,8584.909188,0
1643559011029,8584.909191,2
1643559011339,8584.9091938,11
1643559011339,8584.9091967,33
1643559011339,8584.9091996,47
1643559011339,8584.9092025,54
1643559011339,8584.9092054,68
1643559011339,8584.9092083,89
1643559011339,8584.9092112,111
1643559011339,8584.9092141,130
1643559011339,8584.909217,139
1643559011339,8584.9092199,142
1643559011361,8584.9092228,146
1643559011361,8584.9092257,149
1643559011361,8584.9092288,151
1643559011361,8584.9092318,151
1643559011361,8584.9092347,134
1643559011361,8584.9092376,104
1643559011361,8584.9092406,66
1643559011361,8584.9092435,30
1643559011361,8584.9092464,9
1643559011361,8584.9092493,-9
1643559011385,8584.9092522,-26
1643559011385,8584.9092581,-35
1643559011385,8584.9092611,-42
1643559011385,8584.9092641,-54
1643559011385,8584.9092672,-56
1643559011385,8584.9092701,-42
1643559011385,8584.9092731,-42
1643559011385,8584.909276,-49
1643559011385,8584.9092789,-44
1643559011385,8584.9092818,-37
1643559011407,8584.9092847,-37
1643559011407,8584.9092876,-40
1643559011407,8584.9092906,-30
1643559011407,8584.9092944,-18
1643559011407,8584.9092974,-21
1643559011407,8584.9093003,-26
1643559011407,8584.9093033,-16
1643559011407,8584.9093062,-9
1643559011407,8584.9093093,-9
1643559011407,8584.9093122,-2
1643559011431,8584.9093152,7
1643559011431,8584.9093182,11
1643559011431,8584.9093212,9
1643559011431,8584.9093241,7
1643559011431,8584.9093272,7
1643559011431,8584.9093302,11
1643559011431,8584.9093331,16
1643559011431,8584.9093361,9
1643559011431,8584.909339,4
1643559011431,8584.909342,9
1643559011451,8584.909345,7
1643559011451,8584.9093479,2
1643559011451,8584.9093508,4
1643559011451,8585.3634754,7
1643559011451,8585.3634864,4
1643559011451,8585.3634904,4
1643559011451,8585.3634967,18
1643559011451,8585.363501,23
1643559011451,8585.3635043,16
1643559011451,8585.3635085,2
1643559011474,8585.3635119,-4
1643559011474,8585.3635174,-16
1643559011474,8585.363545,-35
1643559011474,8585.3635616,-11
1643559011474,8585.3635681,54
1643559011474,8585.3635717,85
1643559011474,8585.3635767,61
1643559011474,8585.3635817,49
1643559011474,8585.3635868,59
1643559011474,8585.3635908,52
1643559011496,8585.3635959,30
1643559011496,8585.3636,11
1643559011496,8585.3636049,2
1643559011496,8585.3636097,2
1643559011874,8585.3636146,-2
1643559011874,8585.3636178,-4
1643559011874,8585.363621,7
