unixTime,lslTime,ECG
1643554706750,4280.1838733,47
1643554706750,4280.1838762,54
1643554706750,4280.1838789,76
1643554706750,4280.1838815,73
1643554706750,4280.1838842,66
1643554706750,4280.1838869,76
1643554706750,4280.1838895,54
1643554706750,4280.1838922,11
1643554706750,4280.1838948,7
1643554706750,4280.1838976,23
1643554706783,4280.1839002,30
1643554706783,4280.1839029,42
1643554706783,4280.1839055,54
1643554706783,4280.1839082,61
1643554706783,4280.1839111,59
1643554706783,4280.183914,30
1643554706783,4280.1839168,33
1643554706783,4280.1839196,47
1643554706783,4280.1839225,38
1643554706783,4280.1839253,40
1643554706818,4280.1839281,45
1643554706818,4280.183931,54
1643554706818,4280.1839338,71
1643554706818,4280.1839367,64
1643554706818,4280.1839395,50
1643554706818,4280.1839423,59
1643554706818,4280.1839452,64
1643554706818,4280.1839481,66
1643554706818,4280.183951,66
1643554706818,4280.1839539,73
1643554706850,4280.1839567,81
1643554706850,4280.1839596,69
1643554706850,4280.1839624,35
1643554706850,4280.1839652,4
1643554706850,4280.1839681,7
1643554706850,4280.183971,23
1643554706850,4280.1839738,28
1643554706850,4280.1839788,28
1643554706850,4280.1839816,33
1643554706850,4280.1839845,50
1643554706883,4280.1839873,73
1643554706883,4280.1839921,92
1643554706883,4280.1839948,97
1643554706883,4280.1839978,76
1643554706883,4280.1840006,66
1643554706883,4280.1840035,76
1643554706883,4280.1840064,73
1643554706883,4280.1840092,64
1643554706883,4280.184014,61
1643554706883,4280.1840168,71
1643554706916,4280.1840197,88
1643554706916,4280.1840226,95
1643554706916,4280.1840255,121
1643554706916,4280.1840283,135
1643554706916,4280.1840312,-40
1643554706916,4280.1840341,-491
1643554706916,4280.1840389,-844
1643554706916,4280.1840433,-417
1643554706916,4280.1840462,574
1643554706916,4280.1840491,996
1643554706950,4280.1840521,677
1643554706950,4280.7850318,383
1643554706950,4280.7850427,245
1643554706950,4280.7850459,66
1643554706950,4280.7850487,0
1643554706950,4280.7850514,35
1643554706950,4280.7850539,14
1643554706950,4280.7850566,-23
1643554706950,4280.7850592,-16
1643554706950,4280.7850618,2
1643554706983,4280.7850644,-7
1643554706983,4280.785067,-35
1643554706983,4280.7850696,-69
1643554706983,4280.7850722,-92
1643554707317,4280.7850748,-81
1643554707317,4280.7850774,-59
1643554707317,4280.78508,-66
1643554707317,4280.7850826,-71
1643554707317,4280.7850888,-66
1643554707317,4280.7852565,-76
1643554707317,4280.78527,-85
1643554707317,4280.7852738,-88
1643554707317,4280.7852767,-97
1643554707317,4280.7852793,-107
1643554707350,4280.7852819,-112
1643554707350,4280.7852844,-128
1643554707350,4280.785287,-152
1643554707350,4280.7852896,-154
1643554707350,4280.7852922,-140
1643554707350,4280.7852947,-140
1643554707350,4280.7852973,-138
1643554707350,4280.7852999,-123
1643554707350,4280.7853025,-109
1643554707350,4280.7853051,-92
1643554707384,4280.7853076,-66
1643554707384,4280.7853102,-42
1643554707384,4280.7853128,-7
1643554707384,4280.7853154,30
1643554707384,4280.7853181,50
1643554707384,4280.7853206,64
1643554707384,4280.7853232,83
1643554707384,4280.7853258,92
1643554707384,4280.7853283,92
1643554707384,4280.7853309,90
1643554707416,4280.7853335,88
1643554707416,4280.7853361,88
1643554707416,4280.7853386,78
1643554707416,4280.7853418,71
1643554707416,4280.7853444,73
1643554707416,4280.7853469,76
1643554707416,4280.7853501,73
1643554707416,4280.7853526,73
1643554707416,4280.7853552,73
1643554707416,4280.7853577,64
1643554707438,4280.7853603,59
1643554707438,4280.7853629,71
1643554707438,4280.7853654,76
1643554707438,4280.785368,76
1643554707438,4280.7853706,83
1643554707438,4280.7853732,90
1643554707438,4280.7853758,85
1643554707438,4280.7853784,83
1643554707438,4280.7853809,81
1643554707438,4280.7853835,81
1643554707460,4280.7854218,88
1643554707460,4280.7854299,92
1643554707460,4280.7854337,88
1643554707460,4280.7854365,83
1643554707460,4280.7854392,85
1643554707460,4280.7854418,78
1643554707460,4280.7854445,76
1643554707460,4280.7854472,85
1643554707460,4280.7854498,85
1643554707460,4280.7854525,61
1643554707484,4281.3324405,33
1643554707484,4281.3324528,30
1643554707484,4281.3324577,50
1643554707484,4281.3324625,59
1643554707484,4281.3324662,52
1643554707484,4281.3324707,52
1643554707484,4281.3324742,73
1643554707484,4281.3324771,92
1643554707484,4281.33248,97
1643554707484,4281.3324847,95
1643554707506,4281.3324876,97
1643554707506,4281.3324923,102
1643554707506,4281.332495,109
1643554707506,4281.3324979,112
1643554707838,4281.3325008,107
1643554707838,4281.3325036,92
1643554707838,4281.3325063,69
1643554707838,4281.332509,52
1643554707838,4281.3325117,57
1643554707838,4281.3325144,100
1643554707838,4281.3325171,147
1643554707838,4281.3325198,38
1643554707838,4281.3325226,-374
1643554707838,4281.3325252,-794
1643554707860,4281.332528,-546
1643554707860,4281.3325307,424
1643554707860,4281.3325334,1070
1643554707860,4281.3325361,805
1643554707860,4281.3325388,371
1643554707860,4281.3325414,221
1643554707860,4281.3325443,104
1643554707860,4281.3325472,7
1643554707860,4281.3325521,14
1643554707860,4281.332555,19
1643554707882,4281.3325587,-4
1643554707882,4281.3325615,-9
1643554707882,4281.3325644,-7
1643554707882,4281.332569,-9
1643554707882,4281.3325717,-11
1643554707882,4281.3325746,-9
1643554707882,4281.3325774,-11
1643554707882,4281.3325803,-16
1643554707882,4281.3325831,-14
1643554707882,4281.3325859,-14
1643554707905,4281.332613,-26
1643554707905,4281.3326178,-33
1643554707905,4281.3326207,-28
1643554707905,4281.3326243,-33
1643554707905,4281.3326271,-42
1643554707905,4281.3326318,-52
1643554707905,4281.3326345,-71
1643554707905,4281.3326374,-78
1643554707905,4281.3326413,-76
1643554707905,4281.3326441,-85
1643554707927,4281.3326487,-92
1643554707927,4281.332653,-92
1643554707927,4281.3326575,-92
1643554707927,4281.3326618,-88
1643554707927,4281.3326656,-76
1643554707927,4281.3326684,-64
1643554707927,4281.3326713,-57
1643554707927,4281.3326742,-45
1643554707927,4281.3326788,-26
1643554707927,4281.3326833,2
1643554707950,4281.3326879,21
1643554707950,4281.3326922,38
1643554707950,4281.3326954,59
1643554707950,4281.3326998,64
1643554707950,4281.3327039,59
1643554707950,4281.3327089,69
1643554707950,4281.3327116,78
1643554707950,4281.3327145,78
1643554707950,4281.3327192,76
1643554707950,4281.8825053,71
1643554707972,4281.8825169,66
1643554707972,4281.8825215,64
1643554707972,4281.8825263,69
1643554707972,4281.8825292,78
1643554707972,4281.8825322,73
1643554707972,4281.8825351,71
1643554707972,4281.882538,73
1643554707972,4281.882541,64
1643554707972,4281.8825439,59
1643554707972,4281.8825468,66
1643554707993,4281.8825497,73
1643554707993,4281.8825526,78
1643554707993,4281.8825556,78
1643554707993,4281.8825603,64
1643554708351,4281.8825631,52
1643554708351,4281.8825659,54
1643554708351,4281.8825687,52
1643554708351,4281.8825714,47
1643554708351,4281.8825741,52
1643554708351,4281.8825768,54
1643554708351,4281.8825795,47
1643554708351,4281.8825823,47
1643554708351,4281.882585,57
1643554708351,4281.8825877,61
1643554708373,4281.8825904,64
1643554708373,4281.8825931,59
1643554708373,4281.8825958,47
1643554708373,4281.8825987,28
1643554708373,4281.8826016,7
1643554708373,4281.8826058,11
1643554708373,4281.8826087,28
1643554708373,4281.8826126,30
1643554708373,4281.8826156,21
1643554708373,4281.8826194,28
1643554708395,4281.8826223,61
1643554708395,4281.8826252,83
1643554708395,4281.8826281,76
1643554708395,4281.8826319,73
1643554708395,4281.8826348,85
1643554708395,4281.8826377,88
1643554708395,4281.8826406,85
1643554708395,4281.8826434,92
1643554708395,4281.8826463,100
1643554708395,4281.8826492,102
1643554708416,4281.8826521,102
1643554708416,4281.882655,78
1643554708416,4281.882658,61
1643554708416,4281.8826628,114
1643554708416,4281.8826656,145
1643554708416,4281.8826685,-45
1643554708416,4281.8826723,-484
1643554708416,4281.8826753,-777
1643554708416,4281.8826791,-326
1643554708416,4281.882682,648
1643554708438,4281.8826858,1042
1643554708438,4281.8826887,655
1643554708438,4281.8826915,314
1643554708438,4281.8826944,200
1643554708438,4281.8826973,57
1643554708438,4281.8827002,-9
1643554708438,4281.882703,11
1643554708438,4281.882706,-4
1643554708438,4281.8827097,-21
1643554708438,4281.8827127,-9
1643554708461,4281.8827175,-19
1643554708461,4281.8827214,-28
1643554708461,4281.8827243,-16
1643554708461,4281.8827272,-14
1643554708461,4281.88273,-28
1643554708461,4281.882733,-38
1643554708461,4281.882738,-33
1643554708461,4281.8827416,-33
1643554708461,4282.3860302,-35
1643554708461,4282.3860417,-35
1643554708483,4282.386045,-45
1643554708483,4282.386048,-59
1643554708483,4282.3860509,-73
1643554708483,4282.3860538,-83
1643554708483,4282.3860566,-92
1643554708483,4282.3860595,-109
1643554708483,4282.3860623,-126
1643554708483,4282.3860652,-135
1643554708483,4282.3860681,-140
1643554708483,4282.3860709,-140
1643554708505,4282.3860738,-138
1643554708505,4282.3860766,-133
1643554708505,4282.3860795,-143
1643554708505,4282.3860823,-150
1643554708949,4282.3860853,-131
1643554708949,4282.3860881,-102
1643554708949,4282.3860907,-85
1643554708949,4282.3860934,-71
1643554708949,4282.3860961,-47
1643554708949,4282.3860988,-14
1643554708949,4282.3861016,7
1643554708949,4282.3861043,9
1643554708949,4282.3861104,11
1643554708949,4282.3861133,28
1643554708972,4282.386116,35
1643554708972,4282.3861187,35
1643554708972,4282.3861213,26
1643554708972,4282.386124,16
1643554708972,4282.3861267,19
1643554708972,4282.3861295,23
1643554708972,4282.3861321,28
1643554708972,4282.3861348,30
1643554708972,4282.3861376,40
1643554708972,4282.3861405,54
1643554708995,4282.3861434,54
1643554708995,4282.3861463,42
1643554708995,4282.3861492,30
1643554708995,4282.386152,19
1643554708995,4282.3861557,19
1643554708995,4282.3861613,30
1643554708995,4282.3861642,33
1643554708995,4282.3861671,33
1643554708995,4282.3861699,42
1643554708995,4282.3861733,40
1643554709017,4282.3861788,28
1643554709017,4282.3861818,30
1643554709017,4282.3861847,52
1643554709017,4282.3861876,61
1643554709017,4282.3861908,61
1643554709017,4282.3861954,57
1643554709017,4282.3861983,40
1643554709017,4282.3862012,30
1643554709017,4282.386204,40
1643554709017,4282.3862069,42
1643554709039,4282.3862099,23
1643554709039,4282.3862128,19
1643554709039,4282.3862158,33
1643554709039,4282.3862187,30
1643554709039,4282.3862217,7
1643554709039,4282.3862245,4
1643554709039,4282.3862274,35
1643554709039,4282.3862303,59
1643554709039,4282.3862332,66
1643554709039,4282.3862361,69
1643554709060,4282.386239,73
1643554709060,4282.3862419,71
1643554709060,4282.3862448,81
1643554709060,4282.3862477,100
1643554709060,4282.3862506,95
1643554709060,4282.3862534,66
1643554709060,4282.3862564,54
1643554709060,4282.9839445,66
1643554709060,4282.9839557,73
1643554709060,4282.9839862,85
1643554709082,4282.9840171,128
1643554709082,4282.9840224,40
1643554709082,4282.9840256,-391
1643554709082,4282.9840302,-846
1643554709082,4282.9840329,-634
1643554709082,4282.9840681,281
1643554709082,4282.9840753,929
1643554709082,4282.9840784,763
1643554709082,4282.9840826,393
1643554709082,4282.9840856,238
1643554709106,4282.9840885,85
1643554709106,4282.9840914,-30
1643554709106,4282.9840943,-11
1643554709106,4282.9840973,2
1643554709506,4282.9841001,-33
1643554709506,4282.9841029,-33
1643554709506,4282.9841056,-21
1643554709506,4282.9841083,-28
1643554709506,4282.984111,-30
1643554709506,4282.9841393,-38
1643554709506,4282.9841474,-50
1643554709506,4282.9841509,-42
1643554709506,4282.9841578,-33
1643554709506,4282.984172,-33
1643554709529,4282.9842463,-40
1643554709529,4282.9845155,-45
1643554709529,4282.9845191,-54
1643554709529,4282.9845223,-83
1643554709529,4282.9845253,-97
1643554709529,4282.984528,-85
1643554709529,4282.9845306,-92
1643554709529,4282.9845332,-116
1643554709529,4282.9845358,-126
1643554709529,4282.9845384,-133
1643554709550,4282.984541,-138
1643554709550,4282.9845435,-133
1643554709550,4282.9845461,-123
1643554709550,4282.984549,-123
1643554709550,4282.9845517,-138
1643554709550,4282.9845543,-133
1643554709550,4282.9845569,-104
1643554709550,4282.9845595,-81
1643554709550,4282.9845624,-50
1643554709550,4282.9845652,-11
1643554709574,4282.984568,14
1643554709574,4282.9845708,38
1643554709574,4282.9845736,59
1643554709574,4282.9845762,71
1643554709574,4282.9845789,85
1643554709574,4282.9845815,97
1643554709574,4282.9845841,112
1643554709574,4282.9845867,109
1643554709574,4282.9845893,73
1643554709574,4282.9845919,45
1643554709594,4282.9845945,61
1643554709594,4282.9845971,78
1643554709594,4282.9845997,64
1643554709594,4282.9846023,54
1643554709594,4282.9846049,69
1643554709594,4282.9846074,66
1643554709594,4282.98461,59
1643554709594,4282.9846126,66
1643554709594,4282.9846154,54
1643554709594,4282.9846181,47
1643554709618,4282.9846207,64
1643554709618,4282.9846233,73
1643554709618,4282.9846259,71
1643554709618,4282.984632,71
1643554709618,4282.9846347,66
1643554709618,4282.9846379,61
1643554709618,4283.5345161,66
1643554709618,4283.5345286,78
1643554709618,4283.5345321,92
1643554709618,4283.5345352,92
1643554709640,4283.5345396,76
1643554709640,4283.5345425,83
1643554709640,4283.5345455,97
1643554709640,4283.5345484,76
1643554709640,4283.5345512,69
1643554709640,4283.5345541,83
1643554709640,4283.5345569,52
1643554709640,4283.5345598,-7
1643554709640,4283.5345647,-14
1643554709640,4283.5345676,11
1643554709662,4283.5345705,16
1643554709662,4283.5345734,19
1643554709662,4283.5345763,28
1643554709662,4283.5345802,33
1643554710105,4283.5345831,40
1643554710105,4283.5345859,57
1643554710105,4283.5345885,66
1643554710105,4283.5345912,61
1643554710105,4283.5345939,69
1643554710105,4283.5345966,73
1643554710105,4283.5345993,54
1643554710105,4283.534602,57
1643554710105,4283.5346046,76
1643554710105,4283.5346073,76
1643554710128,4283.53461,69
1643554710128,4283.5346126,71
1643554710128,4283.5346153,78
1643554710128,4283.534618,128
1643554710128,4283.5346207,140
1643554710128,4283.5346233,-104
1643554710128,4283.534626,-579
1643554710128,4283.5346289,-763
1643554710128,4283.5346317,-145
1643554710128,4283.5346346,810
1643554710149,4283.5346375,1037
1643554710149,4283.5346403,593
1643554710149,4283.5346431,295
1643554710149,4283.5346459,183
1643554710149,4283.5346488,52
1643554710149,4283.5346516,11
1643554710149,4283.5346566,40
1643554710149,4283.5346593,23
1643554710149,4283.5346643,2
1643554710149,4283.5346691,7
1643554710172,4283.5346815,4
1643554710172,4283.534699,-2
1643554710172,4283.5347031,-2
1643554710172,4283.5347061,-4
1643554710172,4283.5347091,-4
1643554710172,4283.534712,-4
1643554710172,4283.5347148,-7
1643554710172,4283.5347177,-16
1643554710172,4283.5347206,-28
1643554710172,4283.5347257,-30
1643554710195,4283.5347286,-28
1643554710195,4283.5347316,-33
1643554710195,4283.5347344,-52
1643554710195,4283.5347372,-61
1643554710195,4283.5347401,-61
1643554710195,4283.5347452,-71
1643554710195,4283.5347481,-100
1643554710195,4283.5347533,-109
1643554710195,4283.5347561,-88
1643554710195,4283.534759,-73
1643554710216,4283.5347618,-76
1643554710216,4283.5347647,-83
1643554710216,4283.5347675,-81
1643554710216,4283.5347704,-59
1643554710216,4283.5347732,-38
1643554710216,4284.1339622,-28
1643554710216,4284.1339737,-2
1643554710216,4284.1339787,21
1643554710216,4284.1339844,35
1643554710216,4284.1339879,47
1643554710239,4284.1339909,61
1643554710239,4284.1339938,73
1643554710239,4284.1339968,78
1643554710239,4284.1340017,59
1643554710239,4284.1340045,28
1643554710239,4284.1340073,19
1643554710239,4284.1340101,28
1643554710239,4284.134013,28
1643554710239,4284.1340159,33
1643554710239,4284.1340187,30
1643554710261,4284.1340215,11
1643554710261,4284.1340244,9
1643554710261,4284.1340274,14
1643554710261,4284.1340303,14
1643554710705,4284.134035,11
1643554710705,4284.1340385,9
1643554710705,4284.1340412,19
1643554710705,4284.1340439,33
1643554710705,4284.1340466,35
1643554710705,4284.1340493,33
1643554710705,4284.134052,42
1643554710705,4284.1340547,57
1643554710705,4284.1340574,64
1643554710705,4284.1340601,42
1643554710727,4284.1340628,33
1643554710727,4284.1340654,52
1643554710727,4284.1340681,61
1643554710727,4284.1340707,54
1643554710727,4284.1340734,54
1643554710727,4284.134076,71
1643554710727,4284.1340786,73
1643554710727,4284.1340813,61
1643554710727,4284.1340842,59
1643554710727,4284.134087,54
1643554710750,4284.1340898,21
1643554710750,4284.1340927,0
1643554710750,4284.1340956,21
1643554710750,4284.1341003,47
1643554710750,4284.1341033,42
1643554710750,4284.1341071,33
1643554710750,4284.13411,45
1643554710750,4284.1341129,59
1643554710750,4284.1341158,61
1643554710750,4284.1341187,71
1643554710772,4284.1341216,83
1643554710772,4284.1341263,83
1643554710772,4284.1341292,76
1643554710772,4284.1341322,73
1643554710772,4284.1341351,73
1643554710772,4284.134138,76
1643554710772,4284.1341427,81
1643554710772,4284.1341474,76
1643554710772,4284.1341502,69
1643554710772,4284.1341531,81
1643554710794,4284.134158,131
1643554710794,4284.1341608,135
1643554710794,4284.1341637,-128
1643554710794,4284.1341684,-617
1643554710794,4284.1341721,-770
1643554710794,4284.134175,-88
1643554710794,4284.134179,860
1643554710794,4284.1341819,1006
1643554710794,4284.1341848,536
1643554710794,4284.1341877,259
1643554710817,4284.1341906,159
1643554710817,4284.1341944,42
1643554710817,4284.1341972,21
1643554710817,4284.1342001,45
1643554710817,4284.7288662,16
1643554710817,4284.7288782,-2
1643554710817,4284.7288828,7
1643554710817,4284.728888,2
1643554710817,4284.7288923,-9
1643554710817,4284.7288954,-11
1643554710839,4284.7288995,-21
1643554710839,4284.7289025,-38
1643554710839,4284.7289073,-33
1643554710839,4284.7289101,-26
1643554710839,4284.728913,-38
1643554710839,4284.7289177,-52
1643554710839,4284.7289224,-57
1643554710839,4284.728927,-64
1643554710839,4284.7289298,-95
1643554710839,4284.7289328,-126
1643554710861,4284.7289357,-138
1643554710861,4284.7289404,-138
1643554710861,4284.7289432,-140
1643554710861,4284.7289461,-143
1643554711194,4284.728949,-135
1643554711194,4284.7289518,-128
1643554711194,4284.7289545,-147
1643554711194,4284.7289572,-159
1643554711194,4284.7289599,-143
1643554711194,4284.7289627,-123
1643554711194,4284.7289653,-109
1643554711194,4284.7289681,-78
1643554711194,4284.7289708,-57
1643554711194,4284.7289736,-42
1643554711216,4284.7289762,-21
1643554711216,4284.7289789,9
1643554711216,4284.7289816,21
1643554711216,4284.7289859,26
1643554711216,4284.7289889,42
1643554711216,4284.7289938,54
1643554711216,4284.7289983,52
1643554711216,4284.7290029,52
1643554711216,4284.7290057,40
1643554711216,4284.7290087,30
1643554711238,4284.7290116,38
1643554711238,4284.7290154,42
1643554711238,4284.7290183,38
1643554711238,4284.729023,50
1643554711238,4284.7290257,71
1643554711238,4284.7290287,57
1643554711238,4284.7290335,40
1643554711238,4284.7290362,64
1643554711238,4284.7290391,66
1643554711238,4284.729044,52
1643554711260,4284.7290486,52
1643554711260,4284.7290533,54
1643554711260,4284.7290579,66
1643554711260,4284.7290624,71
1643554711260,4284.7290652,61
1643554711260,4284.7290681,73
1643554711260,4284.729071,88
1643554711260,4284.7290758,73
1643554711260,4284.7290786,66
1643554711260,4284.7290815,76
1643554711282,4284.7290845,76
1643554711282,4284.7290892,59
1643554711282,4284.729092,57
1643554711282,4284.729095,83
1643554711282,4284.7290989,102
1643554711282,4284.729102,88
1643554711282,4284.7291069,35
1643554711282,4284.72911,2
1643554711282,4284.7291129,21
1643554711282,4284.7291176,54
1643554711305,4284.7291219,45
1643554711305,4284.7291267,23
1643554711305,4284.7291308,52
1643554711305,4285.2347433,83
1643554711305,4285.234756,76
1643554711305,4285.2347594,76
1643554711305,4285.2347626,85
1643554711305,4285.2347666,71
1643554711305,4285.2347695,61
1643554711305,4285.2347723,73
1643554711328,4285.2347752,59
1643554711328,4285.2347802,59
1643554711328,4285.234783,90
1643554711328,4285.2347858,92
1643554711328,4285.2347887,69
1643554711328,4285.2347916,76
1643554711328,4285.2347944,104
1643554711328,4285.2347974,-26
1643554711328,4285.2348002,-438
1643554711328,4285.2348031,-841
1643554711350,4285.2348059,-629
1643554711350,4285.2348088,319
1643554711350,4285.2348117,1015
1643554711350,4285.2348145,805
1643554711750,4285.2348173,398
1643554711750,4285.2348201,252
1643554711750,4285.2348228,107
1643554711750,4285.2348256,-7
1643554711750,4285.2348282,14
1643554711750,4285.2348309,28
1643554711750,4285.2348335,-16
1643554711750,4285.2348361,-35
1643554711750,4285.2348388,-16
1643554711750,4285.2348414,-9
1643554711772,4285.234844,-26
1643554711772,4285.2348466,-40
1643554711772,4285.2348492,-33
1643554711772,4285.2348519,-23
1643554711772,4285.2348545,-26
1643554711772,4285.2348572,-33
1643554711772,4285.23486,-40
1643554711772,4285.2348628,-45
1643554711772,4285.2348656,-40
1643554711772,4285.2348684,-40
1643554711795,4285.2348712,-52
1643554711795,4285.234874,-64
1643554711795,4285.2348768,-85
1643554711795,4285.2348797,-104
1643554711795,4285.2348827,-104
1643554711795,4285.2348865,-109
1643554711795,4285.2348893,-119
1643554711795,4285.2348922,-109
1643554711795,4285.234895,-97
1643554711795,4285.2348978,-100
1643554711817,4285.2349005,-90
1643554711817,4285.2349034,-64
1643554711817,4285.2349062,-50
1643554711817,4285.234909,-54
1643554711817,4285.2349119,-38
1643554711817,4285.2349149,14
1643554711817,4285.2349186,50
1643554711817,4285.2349214,57
1643554711817,4285.2349242,66
1643554711817,4285.2349271,85
1643554711840,4285.2349299,95
1643554711840,4285.2349328,109
1643554711840,4285.2349356,109
1643554711840,4285.2349386,85
1643554711840,4285.2349414,71
1643554711840,4285.2349443,85
1643554711840,4285.2349471,85
1643554711840,4285.2349499,69
1643554711840,4285.2349527,61
1643554711840,4285.2349555,59
1643554711862,4285.2349583,45
1643554711862,4285.2349612,45
1643554711862,4285.7844616,61
1643554711862,4285.7844751,71
1643554711862,4285.7844805,71
1643554711862,4285.7844836,61
1643554711862,4285.7845471,57
1643554711862,4285.7845626,71
1643554711862,4285.7845668,81
1643554711862,4285.7845699,64
1643554711884,4285.7845727,64
1643554711884,4285.7845755,88
1643554711884,4285.7845785,81
1643554711884,4285.7845826,42
1643554711884,4285.7845854,38
1643554711884,4285.7845881,59
1643554711884,4285.7845908,57
1643554711884,4285.7845935,45
1643554711884,4285.7845961,61
1643554711884,4285.7845988,61
1643554711906,4285.7846016,40
1643554711906,4285.7846043,16
1643554711906,4285.7846071,-2
1643554711906,4285.7846098,7
1643554712306,4285.7846125,33
1643554712306,4285.7846153,35
1643554712306,4285.784618,11
1643554712306,4285.7846208,11
1643554712306,4285.7846235,45
1643554712306,4285.7846262,73
1643554712306,4285.784629,73
1643554712306,4285.7846316,81
1643554712306,4285.7846343,97
1643554712306,4285.784637,83
1643554712329,4285.7846397,61
1643554712329,4285.7846423,81
1643554712329,4285.7846452,109
1643554712329,4285.784648,100
1643554712329,4285.7846506,81
1643554712329,4285.7846533,81
1643554712329,4285.7846559,100
1643554712329,4285.7846586,150
1643554712329,4285.7846612,154
1643554712329,4285.7846639,-66
1643554712351,4285.7846666,-526
1643554712351,4285.7846693,-777
1643554712351,4285.784672,-221
1643554712351,4285.7846748,794
1643554712351,4285.7846774,1111
1643554712351,4285.7846801,660
1643554712351,4285.7846828,326
1643554712351,4285.7846856,226
1643554712351,4285.7846882,81
1643554712351,4285.7846909,4
1643554712379,4285.7846936,40
1643554712379,4285.7846964,38
1643554712379,4285.7846992,0
1643554712379,4285.7847018,-7
1643554712379,4285.7847045,2
1643554712379,4285.7847072,7
1643554712379,4285.7847099,4
1643554712379,4285.7847126,-4
1643554712379,4285.7847153,-16
1643554712379,4285.784718,-23
1643554712397,4285.7847207,-23
1643554712397,4285.7847234,-11
1643554712397,4285.7847261,-11
1643554712397,4285.7847288,-28
1643554712397,4285.7847315,-28
1643554712397,4285.7847342,-33
1643554712397,4285.7847369,-57
1643554712397,4285.7847396,-71
1643554712397,4285.7847424,-59
1643554712397,4285.7847451,-59
1643554712417,4285.7847479,-78
1643554712417,4286.3338458,-83
1643554712417,4286.3338573,-71
1643554712417,4286.3338621,-71
1643554712417,4286.3338667,-69
1643554712417,4286.3338694,-52
1643554712417,4286.3338722,-38
1643554712417,4286.333875,-28
1643554712417,4286.3338777,-26
1643554712417,4286.3338805,-26
1643554712439,4286.3338832,-19
1643554712439,4286.333886,-21
1643554712439,4286.3338888,-19
1643554712439,4286.3338915,-2
1643554712439,4286.3338944,11
1643554712439,4286.3338993,23
1643554712439,4286.3339034,35
1643554712439,4286.3339061,30
1643554712439,4286.3339089,21
1643554712439,4286.3339117,33
1643554712463,4286.3339144,42
1643554712463,4286.3339171,38
1643554712463,4286.3339199,35
1643554712463,4286.3339227,40
1643554712906,4286.3339255,35
1643554712906,4286.3339282,33
1643554712906,4286.3339308,42
1643554712906,4286.3339334,50
1643554712906,4286.3339359,47
1643554712906,4286.3339385,54
1643554712906,4286.333941,57
1643554712906,4286.3339436,52
1643554712906,4286.3339461,57
1643554712906,4286.3339487,64
1643554712938,4286.3339512,71
1643554712938,4286.3339538,76
1643554712938,4286.3339564,81
1643554712938,4286.333959,90
1643554712938,4286.3339616,88
1643554712938,4286.3339641,66
1643554712938,4286.3339669,57
1643554712938,4286.3339696,66
1643554712938,4286.3339725,69
1643554712938,4286.3339774,66
1643554712972,4286.3339816,71
1643554712972,4286.3339854,66
1643554712972,4286.3339882,23
1643554712972,4286.333991,0
1643554712972,4286.3339957,35
1643554712972,4286.3340001,64
1643554712972,4286.3340028,47
1643554712972,4286.3340057,38
1643554712972,4286.3340093,47
1643554712972,4286.3340121,54
1643554713005,4286.3340149,64
1643554713005,4286.3340178,76
1643554713005,4286.3340224,73
1643554713005,4286.3340266,71
1643554713005,4286.3340303,88
1643554713005,4286.3340331,83
1643554713005,4286.334036,64
1643554713005,4286.3340387,69
1643554713005,4286.3340415,83
1643554713005,4286.3340444,88
1643554713039,4286.3340472,92
1643554713039,4286.3340502,100
1643554713039,4286.3340547,123
1643554713039,4286.3340588,152
1643554713039,4286.3340635,35
1643554713039,4286.3340664,-367
1643554713039,4286.3340692,-755
1643554713039,4286.3340721,-476
1643554713039,4286.3340759,486
1643554713039,4286.3340787,1084
1643554713072,4286.929574,796
1643554713072,4286.9295845,364
1643554713072,4286.929588,205
1643554713072,4286.9295909,81
1643554713072,4286.9295938,0
1643554713072,4286.9295968,26
1643554713072,4286.9296015,33
1643554713072,4286.9296043,-4
1643554713072,4286.9296069,-28
1643554713072,4286.9296096,-47
1643554713105,4286.9296124,-66
1643554713105,4286.9296152,-64
1643554713105,4286.929618,-59
1643554713105,4286.929621,-59
1643554713105,4286.9296249,-57
1643554713105,4286.9296279,-59
1643554713105,4286.9296334,-50
1643554713105,4286.9296361,-45
1643554713105,4286.929639,-64
1643554713105,4286.9296427,-88
1643554713140,4286.9296455,-90
1643554713140,4286.9296483,-81
1643554713140,4286.9296512,-92
1643554713140,4286.9296544,-109
1643554713473,4286.9296588,-104
1643554713473,4286.9296615,-102
1643554713473,4286.9296644,-100
1643554713473,4286.9296671,-95
1643554713473,4286.9296698,-112
1643554713473,4286.9296725,-121
1643554713473,4286.9296752,-107
1643554713473,4286.929678,-104
1643554713473,4286.9296806,-92
1643554713473,4286.9296833,-69
1643554713505,4286.929686,-50
1643554713505,4286.9296886,-42
1643554713505,4286.9296913,-33
1643554713505,4286.929694,-2
1643554713505,4286.9296966,38
1643554713505,4286.9296993,35
1643554713505,4286.9297022,4
1643554713505,4286.9297056,14
1643554713505,4286.9297103,54
1643554713505,4286.9297132,54
1643554713539,4286.929716,28
1643554713539,4286.9297189,33
1643554713539,4286.9297217,35
1643554713539,4286.9297246,14
1643554713539,4286.9297284,16
1643554713539,4286.9297313,40
1643554713539,4286.9297342,40
1643554713539,4286.9297378,30
1643554713539,4286.9297407,47
1643554713539,4286.9297436,52
1643554713572,4286.9297472,35
1643554713572,4286.92975,40
1643554713572,4286.929753,47
1643554713572,4286.9297574,42
1643554713572,4286.9297602,47
1643554713572,4286.9297631,59
1643554713572,4286.9297677,59
1643554713572,4286.929772,50
1643554713572,4286.9297749,57
1643554713572,4286.9297796,76
1643554713606,4286.9297824,69
1643554713606,4286.9297864,47
1643554713606,4286.9297893,54
1643554713606,4286.9297939,71
1643554713606,4286.9297984,66
1643554713606,4286.9298025,64
1643554713606,4286.9298054,61
1643554713606,4286.9298099,38
1643554713606,4286.9298127,14
1643554713606,4287.4838737,2
1643554713639,4287.4838856,11
1643554713639,4287.4838889,45
1643554713639,4287.4838919,59
1643554713639,4287.4838968,40
1643554713639,4287.4838997,38
1643554713639,4287.4839041,42
1643554713639,4287.4839068,30
1643554713639,4287.4839097,28
1643554713639,4287.4839125,45
1643554713639,4287.4839153,47
1643554713662,4287.4839181,52
1643554713662,4287.4839228,52
1643554713662,4287.4839272,42
1643554713662,4287.4839318,54
1643554713662,4287.4839344,61
1643554713662,4287.4839373,40
1643554713662,4287.4839401,45
1643554713662,4287.483943,66
1643554713662,4287.4839478,107
1643554713662,4287.4839504,66
1643554713684,4287.4839534,-250
1643554713684,4287.483958,-727
1643554713684,4287.4839623,-753
1643554713684,4287.4839652,54
1643554714039,4287.4839681,915
1643554714039,4287.4839708,894
1643554714039,4287.4839734,467
1643554714039,4287.483976,290
1643554714039,4287.4839787,154
1643554714039,4287.4839814,4
1643554714039,4287.483984,7
1643554714039,4287.4839866,23
1643554714039,4287.4839892,-11
1643554714039,4287.4839918,-9
1643554714061,4287.4839945,-9
1643554714061,4287.4839972,-47
1643554714061,4287.4839998,-57
1643554714061,4287.4840024,-26
1643554714061,4287.4840051,-16
1643554714061,4287.4840077,-35
1643554714061,4287.4840112,-42
1643554714061,4287.484014,-38
1643554714061,4287.4840168,-40
1643554714061,4287.4840196,-47
1643554714083,4287.4840225,-47
1643554714083,4287.4840253,-47
1643554714083,4287.4840282,-54
1643554714083,4287.4840329,-69
1643554714083,4287.4840357,-71
1643554714083,4287.4840385,-73
1643554714083,4287.4840413,-95
1643554714083,4287.4840442,-109
1643554714083,4287.4840471,-109
1643554714083,4287.4840507,-112
1643554714105,4287.4840536,-112
1643554714105,4287.4840573,-104
1643554714105,4287.4840601,-97
1643554714105,4287.4840629,-85
1643554714105,4287.4840657,-71
1643554714105,4287.4840686,-57
1643554714105,4287.4840714,-30
1643554714105,4287.4840743,2
1643554714105,4287.4840788,16
1643554714105,4287.4840831,26
1643554714127,4287.4840859,52
1643554714127,4287.4840888,73
1643554714127,4287.4840935,81
1643554714127,4287.4840963,85
1643554714127,4287.4840991,83
1643554714127,4287.484102,81
1643554714127,4287.4841047,83
1643554714127,4287.4841076,81
1643554714127,4288.0794237,71
1643554714127,4288.0794422,66
1643554714150,4288.0794601,64
1643554714150,4288.0794657,64
1643554714150,4288.079469,73
1643554714150,4288.0794741,78
1643554714150,4288.0794769,59
1643554714150,4288.0794799,47
1643554714150,4288.0794839,54
1643554714150,4288.0794868,61
1643554714150,4288.0794897,64
1643554714150,4288.0794925,50
1643554714172,4288.0794954,30
1643554714172,4288.0794983,30
1643554714172,4288.0795013,38
1643554714172,4288.0795062,38
1643554714172,4288.079509,35
1643554714172,4288.079512,35
1643554714172,4288.0795149,42
1643554714172,4288.0795178,45
1643554714172,4288.0795251,40
1643554714172,4288.079528,47
1643554714194,4288.0795312,57
1643554714194,4288.0795351,50
1643554714194,4288.0795378,45
1643554714194,4288.0795405,42
1643554714550,4288.0795432,19
1643554714550,4288.0795459,0
1643554714550,4288.0795486,19
1643554714550,4288.0795512,33
1643554714550,4288.0795539,19
1643554714550,4288.0796249,9
1643554714550,4288.079631,26
1643554714550,4288.0796345,54
1643554714550,4288.0796376,71
1643554714550,4288.0796406,78
1643554714572,4288.0796436,76
1643554714572,4288.0796477,64
1643554714572,4288.0796506,61
1643554714572,4288.0796534,81
1643554714572,4288.0796563,85
1643554714572,4288.079659,81
1643554714572,4288.0796628,81
1643554714572,4288.0796657,81
1643554714572,4288.0796687,78
1643554714572,4288.079673,95
1643554714594,4288.0796759,147
1643554714594,4288.0796788,116
1643554714594,4288.0796817,-197
1643554714594,4288.0796857,-665
1643554714594,4288.0796898,-691
1643554714594,4288.0796928,114
1643554714594,4288.0796957,996
1643554714594,4288.0796986,984
1643554714594,4288.0797015,503
1643554714594,4288.0797045,281
1643554714616,4288.0797087,166
1643554714616,4288.0797115,33
1643554714616,4288.0797144,16
1643554714616,4288.0797173,42
1643554714616,4288.079721,19
1643554714616,4288.0797239,4
1643554714616,4288.0797268,9
1643554714616,4288.0797308,7
1643554714616,4288.0797336,2
1643554714616,4288.0797364,7
1643554714638,4288.0797394,7
1643554714638,4288.0797422,0
1643554714638,4288.0797451,2
1643554714638,4288.079749,4
1643554714638,4288.0797519,-2
1643554714638,4288.0797559,-9
1643554714638,4288.0797587,-9
1643554714638,4288.5839636,-14
1643554714638,4288.583976,-26
1643554714638,4288.5839807,-35
1643554714661,4288.5839855,-38
1643554714661,4288.5839883,-45
1643554714661,4288.5839914,-50
1643554714661,4288.5839962,-59
1643554714661,4288.5839991,-69
1643554714661,4288.5840021,-57
1643554714661,4288.584006,-59
1643554714661,4288.584009,-83
1643554714661,4288.5840137,-81
1643554714661,4288.5840165,-59
1643554714683,4288.5840196,-61
1643554714683,4288.5840243,-64
1643554714683,4288.5840271,-42
1643554714683,4288.584033,-28
1643554714683,4288.5840375,-16
1643554714683,4288.5840699,7
1643554714683,4288.5840775,23
1643554714683,4288.5840808,28
1643554714683,4288.5840838,30
1643554714683,4288.5840866,23
1643554714706,4288.5840894,21
1643554714706,4288.5840922,28
1643554714706,4288.5841048,30
1643554714706,4288.5841174,30
1643554715239,4288.5841222,28
1643554715239,4288.5841251,28
1643554715239,4288.5841282,28
1643554715239,4288.5841362,28
1643554715239,4288.5842442,35
1643554715239,4288.5842607,42
1643554715239,4288.5842689,33
1643554715239,4288.5842772,30
1643554715239,4288.5842866,42
1643554715239,4288.5842948,47
1643554715261,4288.5843015,40
1643554715261,4288.5843099,47
1643554715261,4288.5843131,54
1643554715261,4288.584321,50
1643554715261,4288.5843242,52
1643554715261,4288.584327,54
1643554715261,4288.5843373,47
1643554715261,4288.5843408,57
1643554715261,4288.5843437,69
1643554715261,4288.5843465,66
1643554715283,4288.5843492,57
1643554715283,4288.5843518,57
1643554715283,4288.5843544,64
1643554715283,4288.5843571,64
1643554715283,4288.5843597,66
1643554715283,4288.5843624,64
1643554715283,4288.584365,38
1643554715283,4288.5843676,11
1643554715283,4288.5843702,16
1643554715283,4288.584373,35
1643554715305,4288.5843861,40
1643554715305,4288.5843999,26
1643554715305,4288.5844045,33
1643554715305,4288.5844136,69
1643554715305,4288.584417,83
1643554715305,4288.5844198,76
1643554715305,4288.5844225,81
1643554715305,4288.5844252,90
1643554715305,4288.5844279,90
1643554715305,4288.5844305,92
1643554715328,4288.5844331,100
1643554715328,4288.5844358,90
1643554715328,4288.5844385,83
1643554715328,4288.5844411,88
1643554715328,4288.5844438,83
1643554715328,4288.5844465,85
1643554715328,4289.2796608,131
1643554715328,4289.2796736,150
1643554715328,4289.2796784,-64
1643554715328,4289.2796835,-531
1643554715349,4289.2796864,-770
1643554715349,4289.2796895,-195
1643554715349,4289.2796925,777
1643554715349,4289.2796967,1034
1643554715349,4289.2796997,584
1643554715349,4289.2797046,252
1643554715349,4289.2797091,143
1643554715349,4289.2797136,30
1643554715349,4289.2797185,-11
1643554715349,4289.279723,0
1643554715371,4289.2797279,-30
1643554715371,4289.2797309,-59
1643554715371,4289.2797355,-47
1643554715371,4289.27974,-45
1643554715371,4289.2797448,-50
1643554715371,4289.2797478,-33
1643554715371,4289.2797525,-33
1643554715371,4289.2797554,-47
1643554715371,4289.2797584,-42
1643554715371,4289.2797637,-28
1643554715394,4289.2797666,-28
1643554715394,4289.2797695,-45
1643554715394,4289.2797746,-69
1643554715394,4289.2797779,-73
1643554715661,4289.2797826,-57
1643554715661,4289.2797862,-61
1643554715661,4289.2797891,-69
1643554715661,4289.2797919,-76
1643554715661,4289.2797946,-83
1643554715661,4289.2797975,-92
1643554715661,4289.2798004,-114
1643554715661,4289.2798033,-133
1643554715661,4289.2798062,-114
1643554715661,4289.2798089,-73
1643554715682,4289.2798117,-66
1643554715682,4289.2798144,-78
1643554715682,4289.2798172,-76
1643554715682,4289.2798201,-64
1643554715682,4289.2798231,-45
1643554715682,4289.2798258,-33
1643554715682,4289.2798286,-23
1643554715682,4289.2798314,14
1643554715682,4289.2798345,47
1643554715682,4289.2798379,35
1643554715705,4289.279841,28
1643554715705,4289.2798463,45
1643554715705,4289.2798493,35
1643554715705,4289.2798524,26
1643554715705,4289.2798563,52
1643554715705,4289.2798593,66
1643554715705,4289.279863,50
1643554715705,4289.2798661,28
1643554715705,4289.2798701,30
1643554715705,4289.2798731,57
1643554715727,4289.279878,54
1643554715727,4289.2798811,30
1643554715727,4289.2798861,45
1643554715727,4289.2798889,52
1643554715727,4289.279892,21
1643554715727,4289.2798959,30
1643554715727,4289.2798988,69
1643554715727,4289.2799016,61
1643554715727,4289.2799043,35
1643554715727,4289.2799072,35
1643554715750,4289.2799127,52
1643554715750,4289.2799168,64
1643554715750,4289.2799199,69
1643554715750,4289.2799248,71
1643554715750,4289.2799277,59
1643554715750,4289.6838895,40
1643554715750,4289.6839019,42
1643554715750,4289.6839064,64
1643554715750,4289.6839117,81
1643554715750,4289.6839145,69
1643554715772,4289.6839174,64
1643554715772,4289.6839203,52
1643554715772,4289.6839232,7
1643554715772,4289.6839261,-2
1643554715772,4289.683929,42
1643554715772,4289.6839319,40
1643554715772,4289.6839348,7
1643554715772,4289.6839377,21
1643554715772,4289.6839406,47
1643554715772,4289.6839434,54
1643554715794,4289.6839463,69
1643554715794,4289.6839493,81
1643554715794,4289.6839521,76
1643554715794,4289.683955,59
1643554715794,4289.6839579,50
1643554715794,4289.6839609,64
1643554715794,4289.6839638,57
1643554715794,4289.6839668,23
1643554715794,4289.6839698,21
1643554715794,4289.6839726,45
1643554715817,4289.6839754,47
1643554715817,4289.6839784,71
1643554715817,4289.6839812,85
1643554715817,4289.6839841,-100
1643554716194,4289.683987,-569
1643554716194,4289.6839899,-879
1643554716194,4289.6839926,-386
1643554716194,4289.6839953,629
1643554716194,4289.683998,1001
1643554716194,4289.6840007,612
1643554716194,4289.6840034,343
1643554716194,4289.684006,259
1643554716194,4289.6840087,73
1643554716194,4289.6840116,-11
1643554716216,4289.6840142,26
1643554716216,4289.684017,-16
1643554716216,4289.6840196,-47
1643554716216,4289.6840223,2
1643554716216,4289.6840251,7
1643554716216,4289.6840277,-28
1643554716216,4289.6840305,-30
1643554716216,4289.6840342,-23
1643554716216,4289.6840372,-7
1643554716216,4289.6840401,-2
1643554716238,4289.684043,-33
1643554716238,4289.684046,-45
1643554716238,4289.6840526,-26
1643554716238,4289.6840573,-30
1643554716238,4289.6840617,-59
1643554716238,4289.6840647,-66
1643554716238,4289.6840674,-50
1643554716238,4289.6840706,-50
1643554716238,4289.6840735,-78
1643554716238,4289.6840765,-95
1643554716260,4289.6840818,-95
1643554716260,4289.6840849,-107
1643554716260,4289.6840897,-119
1643554716260,4289.6840927,-121
1643554716260,4289.6840987,-107
1643554716260,4289.6841021,-66
1643554716260,4289.6841071,-45
1643554716260,4289.6841102,-76
1643554716260,4289.684115,-88
1643554716260,4289.6841179,-54
1643554716283,4289.6841227,-14
1643554716283,4289.6841258,19
1643554716283,4289.6841306,40
1643554716283,4289.6841337,33
1643554716283,4290.2345436,33
1643554716283,4290.2345545,76
1643554716283,4290.2345579,109
1643554716283,4290.2345608,85
1643554716283,4290.2345635,35
1643554716283,4290.2345663,19
1643554716305,4290.2345689,23
1643554716305,4290.2345721,16
1643554716305,4290.2345748,0
1643554716305,4290.2345776,-9
1643554716305,4290.2345803,9
1643554716305,4290.234583,14
1643554716305,4290.2345858,7
1643554716305,4290.2345884,11
1643554716305,4290.2345914,4
1643554716305,4290.2345941,11
1643554716327,4290.2345979,42
1643554716327,4290.2346009,21
1643554716327,4290.2346037,-4
1643554716327,4290.2346081,52
1643554716327,4290.234611,69
1643554716327,4290.2346161,14
1643554716327,4290.2346191,16
1643554716327,4290.2346399,54
1643554716327,4290.2346432,54
1643554716327,4290.2346674,42
1643554716350,4290.2346722,47
1643554716350,4290.2346783,61
1643554716350,4290.234683,71
1643554716350,4290.2346861,76
1643554716839,4290.2346909,64
1643554716839,4290.2346938,52
1643554716839,4290.2346966,35
1643554716839,4290.2346993,4
1643554716839,4290.2347021,11
1643554716839,4290.2347048,57
1643554716839,4290.2347075,50
1643554716839,4290.2347103,4
1643554716839,4290.2347129,28
1643554716839,4290.2347161,76
1643554716861,4290.2347189,71
1643554716861,4290.2347216,73
1643554716861,4290.2347243,97
1643554716861,4290.234727,95
1643554716861,4290.2347297,71
1643554716861,4290.2347324,81
1643554716861,4290.2347351,100
1643554716861,4290.2347379,90
1643554716861,4290.2347406,92
1643554716861,4290.2347433,104
1643554716882,4290.2347462,88
1643554716882,4290.2347491,90
1643554716882,4290.2347521,140
1643554716882,4290.2347551,114
1643554716882,4290.2347605,-178
1643554716882,4290.2347643,-655
1643554716882,4290.2347686,-753
1643554716882,4290.2347716,23
1643554716882,4290.2347754,1020
1643554716882,4290.2347786,1094
1643554716905,4290.2347832,550
1643554716905,4290.2347861,293
1643554716905,4290.2347899,197
1643554716905,4290.2347933,28
1643554716905,4290.234798,-16
1643554716905,4290.2348008,35
1643554716905,4290.2348038,30
1643554716905,4290.2348078,-4
1643554716905,4290.2348108,-14
1643554716905,4290.2348159,-4
1643554716927,4290.2348197,-2
1643554716927,4290.2348227,-16
1643554716927,4290.2348256,-14
1643554716927,4290.8791843,-11
1643554716927,4290.8791959,-21
1643554716927,4290.8791994,-23
1643554716927,4290.8792042,-42
1643554716927,4290.8792084,-78
1643554716927,4290.8792131,-71
1643554716927,4290.8792159,-61
1643554716949,4290.8792188,-97
1643554716949,4290.8792217,-109
1643554716949,4290.8792821,-81
1643554716949,4290.8792892,-73
1643554716949,4290.8792924,-88
1643554716949,4290.8792972,-92
1643554716949,4290.8793018,-71
1643554716949,4290.8793065,-50
1643554716949,4290.8793094,-66
1643554716949,4290.8793125,-81
1643554716976,4290.8793165,-61
1643554716976,4290.8793196,-45
1643554716976,4290.8793243,-33
1643554716976,4290.8793273,-14
1643554716976,4290.8793303,9
1643554716976,4290.8793349,9
1643554716976,4290.8793377,-4
1643554716976,4290.8793407,11
1643554716976,4290.8793445,52
1643554716976,4290.8793476,61
1643554716993,4290.8793523,38
1643554716993,4290.8794195,33
1643554716993,4290.879425,76
1643554716993,4290.8794282,92
1643554717438,4290.8794328,42
1643554717438,4290.8794366,26
1643554717438,4290.8794395,69
1643554717438,4290.8794423,71
1643554717438,4290.8794451,40
1643554717438,4290.8794479,40
1643554717438,4290.8794507,54
1643554717438,4290.8794534,47
1643554717438,4290.8794562,30
1643554717438,4290.879459,57
1643554717460,4290.8794617,85
1643554717460,4290.8794648,61
1643554717460,4290.8794676,40
1643554717460,4290.8794704,54
1643554717460,4290.8794734,66
1643554717460,4290.8794764,61
1643554717460,4290.8794943,64
1643554717460,4290.8794994,78
1643554717460,4290.8795024,76
1643554717460,4290.8795077,52
1643554717483,4290.8795108,47
1643554717483,4290.8795156,78
1643554717483,4290.8795193,104
1643554717483,4290.8795223,92
1643554717483,4290.8795261,64
1643554717483,4290.8795293,61
1643554717483,4290.8795341,78
1643554717483,4290.8795386,47
1643554717483,4290.8795432,-2
1643554717483,4290.8795461,11
1643554717504,4290.8795491,40
1643554717504,4290.8795539,30
1643554717504,4290.8795568,26
1643554717504,4290.8795598,35
1643554717504,4290.8795639,59
1643554717504,4290.879567,92
1643554717504,4290.8795718,81
1643554717504,4290.8795748,50
1643554717504,4290.8795779,69
1643554717504,4290.8795839,104
1643554717527,4290.8795872,102
1643554717527,4290.8795923,57
1643554717527,4291.4825422,33
1643554717527,4291.4825541,66
1643554717527,4291.4825593,97
1643554717527,4291.4825643,88
1643554717527,4291.4825677,95
1643554717527,4291.4825725,166
1643554717527,4291.4825759,131
1643554717527,4291.4825789,-250
1643554717551,4291.4825818,-741
1643554717551,4291.4825846,-689
1643554717551,4291.4825875,162
1643554717551,4291.4825903,982
1643554717551,4291.4825932,915
1643554717551,4291.482596,450
1643554717551,4291.4825988,247
1643554717551,4291.4826017,109
1643554717551,4291.4826045,-40
1643554717551,4291.4826073,-23
1643554717572,4291.48261,16
1643554717572,4291.4826129,-23
1643554717572,4291.4826157,-40
1643554717572,4291.4826185,-28
1643554717572,4291.4826213,-50
1643554717572,4291.4826241,-57
1643554717572,4291.4826269,-28
1643554717572,4291.4826298,-9
1643554717572,4291.4826326,-23
1643554717572,4291.4826354,-42
1643554717594,4291.4826382,-45
1643554717594,4291.482641,-45
1643554717594,4291.4826439,-50
1643554717594,4291.4826466,-61
1643554717905,4291.4826494,-71
1643554717905,4291.4826522,-66
1643554717905,4291.4826548,-47
1643554717905,4291.4826574,-42
1643554717905,4291.4826601,-64
1643554717905,4291.4826627,-73
1643554717905,4291.4826654,-71
1643554717905,4291.482668,-95
1643554717905,4291.4826708,-92
1643554717905,4291.4826734,-40
1643554717927,4291.4826761,-30
1643554717927,4291.4826787,-59
1643554717927,4291.4826813,-73
1643554717927,4291.4826841,-76
1643554717927,4291.4826867,-42
1643554717927,4291.4826894,9
1643554717927,4291.4826921,28
1643554717927,4291.4826949,21
1643554717927,4291.4826978,11
1643554717927,4291.4827007,11
1643554717949,4291.4827035,28
1643554717949,4291.4827063,40
1643554717949,4291.4827091,45
1643554717949,4291.4827118,40
1643554717949,4291.4827146,42
1643554717949,4291.4827175,47
1643554717949,4291.4827202,35
1643554717949,4291.482723,40
1643554717949,4291.4827258,64
1643554717949,4291.4827286,38
1643554717972,4291.4827314,7
1643554717972,4291.4827342,45
1643554717972,4291.482737,59
1643554717972,4291.4827399,28
1643554717972,4291.4827426,52
1643554717972,4291.4827455,73
1643554717972,4291.4827484,38
1643554717972,4291.4827511,28
1643554717972,4291.482754,64
1643554717972,4291.4827568,81
1643554717995,4291.4827596,64
1643554717995,4291.9339063,61
1643554717995,4291.9339179,81
1643554717995,4291.9339224,83
1643554717995,4291.9339275,61
1643554717995,4291.9339303,57
1643554717995,4291.9339332,69
1643554717995,4291.9339371,69
1643554717995,4291.9339399,59
1643554717995,4291.9339428,52
1643554718017,4291.9339456,50
1643554718017,4291.9339485,38
1643554718017,4291.9339513,45
1643554718017,4291.9339543,40
1643554718017,4291.933959,-14
1643554718017,4291.9339618,-40
1643554718017,4291.9339646,-7
1643554718017,4291.9339676,19
1643554718017,4291.9339705,30
1643554718017,4291.9339746,47
1643554718038,4291.9339775,54
1643554718038,4291.9339804,35
1643554718038,4291.9339832,7
1643554718038,4291.9339861,19
1643554718038,4291.9339889,47
1643554718038,4291.9339918,50
1643554718038,4291.9339947,50
1643554718038,4291.9339975,54
1643554718038,4291.9340004,38
1643554718038,4291.9340045,21
1643554718061,4291.9340074,42
1643554718061,4291.9340112,83
1643554718061,4291.9340142,69
1643554718061,4291.9340178,-150
1643554718542,4291.9340207,-598
1643554718542,4291.9340236,-805
1643554718542,4291.9340263,-181
1643554718542,4291.934029,789
1643554718542,4291.9340318,1001
1643554718542,4291.9340345,565
1643554718542,4291.9340372,281
1643554718542,4291.9340403,159
1643554718542,4291.9340431,33
1643554718542,4291.9340459,7
1643554718564,4291.9340485,26
1643554718564,4291.9340512,-7
1643554718564,4291.9340539,-33
1643554718564,4291.9340577,-19
1643554718564,4291.9340606,-14
1643554718564,4291.9340635,-30
1643554718564,4291.9340664,-50
1643554718564,4291.9340693,-54
1643554718564,4291.9340732,-40
1643554718564,4291.934076,-42
1643554718583,4291.9340789,-52
1643554718583,4291.9340818,-45
1643554718583,4291.9340847,-52
1643554718583,4291.9340876,-59
1643554718583,4291.9340904,-40
1643554718583,4291.9340933,-40
1643554718583,4291.9340962,-78
1643554718583,4291.9340991,-88
1643554718583,4291.9341039,-76
1643554718583,4291.9341068,-95
1643554718608,4291.9341107,-126
1643554718608,4291.9341136,-114
1643554718608,4291.9341184,-92
1643554718608,4291.9341212,-102
1643554718608,4291.9341241,-100
1643554718608,4291.934127,-88
1643554718608,4291.93413,-92
1643554718608,4291.9341328,-88
1643554718608,4291.9341357,-66
1643554718608,4291.9341416,-42
1643554718642,4292.5833449,-16
1643554718642,4292.583435,16
1643554718642,4292.583445,54
1643554718642,4292.5834516,61
1643554718642,4292.583455,54
1643554718642,4292.5834601,66
1643554718642,4292.5834633,57
1643554718642,4292.5834691,14
1643554718642,4292.5834723,4
1643554718642,4292.5834774,30
1643554718674,4292.5834807,30
1643554718674,4292.583486,7
1643554718674,4292.5834894,16
1643554718674,4292.5834943,42
1643554718674,4292.5834977,33
1643554718674,4292.5835026,11
1643554718674,4292.5835059,30
1643554718674,4292.583511,50
1643554718674,4292.5835141,42
1643554718674,4292.5835195,38
1643554718708,4292.5835228,35
1643554718708,4292.5835289,30
1643554718708,4292.5835321,40
1643554718708,4292.5835372,52
1643554718708,4292.5835404,54
1643554718708,4292.5835454,57
1643554718708,4292.5835486,59
1643554718708,4292.5835536,66
1643554718708,4292.5835568,69
1643554718708,4292.5835618,61
1643554718740,4292.5835659,61
1643554718740,4292.583571,66
1643554718740,4292.5835742,71
1643554718740,4292.5835792,61
1643554719071,4292.5835824,35
1643554719071,4292.5835855,33
1643554719071,4292.5835884,28
1643554719071,4292.5835913,9
1643554719071,4292.5835942,16
1643554719071,4292.5835972,23
1643554719071,4292.5836,33
1643554719071,4292.5836029,57
1643554719071,4292.5836066,78
1643554719071,4292.5836095,85
1643554719104,4292.5836124,78
1643554719104,4292.5836153,71
1643554719104,4292.5836181,78
1643554719104,4292.583621,83
1643554719104,4292.5836239,78
1643554719104,4292.5836267,73
1643554719104,4292.5836295,78
1643554719104,4292.5836325,88
1643554719104,4292.5836353,83
1643554719104,4292.5836382,92
1643554719138,4292.5836417,145
1643554719138,4292.5836445,114
1643554719138,4292.5836474,-221
1643554719138,4292.5836502,-701
1643554719138,4292.5836537,-684
1643554719138,4292.5836566,133
1643554719138,4292.5836595,960
1643554719138,4292.5836623,949
1643554719138,4292.5836652,536
1643554719138,4292.5836681,336
1643554719172,4292.5836713,195
1643554719172,4292.5836741,50
1643554719172,4292.5836769,33
1643554719172,4292.5836798,42
1643554719172,4292.5836827,11
1643554719172,4292.5836855,4
1643554719172,4292.5836884,19
1643554719172,4292.5836912,7
1643554719172,4292.5836944,-7
1643554719172,4293.0852461,-4
1643554719204,4293.0852562,-4
1643554719204,4293.0852607,-9
1643554719204,4293.0852636,-11
1643554719204,4293.0852665,-11
1643554719204,4293.0852694,-21
1643554719204,4293.0852736,-23
1643554719204,4293.0852764,-23
1643554719204,4293.0852817,-30
1643554719204,4293.0852846,-42
1643554719204,4293.0852874,-54
1643554719238,4293.0852902,-64
1643554719238,4293.085293,-69
1643554719238,4293.0852958,-76
1643554719238,4293.0852986,-81
1643554719238,4293.0853012,-76
1643554719238,4293.0853038,-73
1643554719238,4293.0853064,-90
1643554719238,4293.0853091,-112
1643554719238,4293.0853117,-100
1643554719238,4293.0853143,-85
1643554719271,4293.0853169,-85
1643554719271,4293.0853195,-64
1643554719271,4293.0853222,-33
1643554719271,4293.0853248,-11
1643554719271,4293.0853279,11
1643554719271,4293.0853306,40
1643554719271,4293.0853332,57
1643554719271,4293.0853358,57
1643554719271,4293.0853384,50
1643554719271,4293.085341,52
1643554719305,4293.0853436,57
1643554719305,4293.0853464,52
1643554719305,4293.0853489,47
1643554719305,4293.0853515,47
1643554719695,4293.0853542,40
1643554719695,4293.0853568,35
1643554719695,4293.0853595,42
1643554719695,4293.0853621,42
1643554719695,4293.0853647,35
1643554719695,4293.0853673,38
1643554719695,4293.0853699,42
1643554719695,4293.0853725,42
1643554719695,4293.0853751,42
1643554719695,4293.0853777,52
1643554719717,4293.0853806,64
1643554719717,4293.0853832,66
1643554719717,4293.0853858,61
1643554719717,4293.0853887,64
1643554719717,4293.0853914,71
1643554719717,4293.085394,71
1643554719717,4293.0853966,73
1643554719717,4293.0853992,81
1643554719717,4293.0854018,85
1643554719717,4293.0854044,81
1643554719739,4293.085407,81
1643554719739,4293.0854097,83
1643554719739,4293.0854123,69
1643554719739,4293.085415,42
1643554719739,4293.0854178,28
1643554719739,4293.0854204,35
1643554719739,4293.085423,54
1643554719739,4293.0854257,54
1643554719739,4293.0854283,35
1643554719739,4293.0854309,45
1643554719761,4293.0854336,76
1643554719761,4293.0854362,90
1643554719761,4293.0854389,88
1643554719761,4293.0854417,90
1643554719761,4293.0854443,97
1643554719761,4293.0854469,95
1643554719761,4293.0854496,95
1643554719761,4293.0854523,97
1643554719761,4293.72921,104
1643554719761,4293.7292244,107
1643554719784,4293.729242,102
1643554719784,4293.7292694,100
1643554719784,4293.729275,112
1643554719784,4293.7292782,159
1643554719784,4293.729281,133
1643554719784,4293.7292838,-169
1643554719784,4293.7292866,-634
1643554719784,4293.7292893,-679
1643554719784,4293.7292922,76
1643554719784,4293.7292949,937
1643554719805,4293.7295426,941
1643554719805,4293.7295497,464
1643554719805,4293.7295532,236
1643554719805,4293.7295561,131
1643554719805,4293.7295596,9
1643554719805,4293.7295624,-7
1643554719805,4293.7295652,0
1643554719805,4293.7295679,-40
1643554719805,4293.7295706,-47
1643554719805,4293.7295733,-38
1643554719828,4293.7295759,-52
1643554719828,4293.7295785,-59
1643554719828,4293.7295812,-50
1643554719828,4293.7295838,-50
1643554719828,4293.7295864,-57
1643554719828,4293.7295891,-50
1643554719828,4293.7295917,-45
1643554719828,4293.7295943,-64
1643554719828,4293.7295969,-83
1643554719828,4293.7295996,-83
1643554719851,4293.7296023,-76
1643554719851,4293.7296049,-66
1643554719851,4293.7296076,-66
1643554719851,4293.7296102,-85
1643554720250,4293.7296128,-102
1643554720250,4293.7296155,-102
1643554720250,4293.7296182,-107
1643554720250,4293.7296208,-109
1643554720250,4293.7296234,-90
1643554720250,4293.729626,-83
1643554720250,4293.7296287,-97
1643554720250,4293.7296313,-83
1643554720250,4293.729634,-66
1643554720250,4293.7296367,-71
1643554720272,4293.7296393,-59
1643554720272,4293.729642,-28
1643554720272,4293.7296616,0
1643554720272,4293.729665,11
1643554720272,4293.7296677,26
1643554720272,4293.7296704,50
1643554720272,4293.7296731,57
1643554720272,4293.7296757,59
1643554720272,4293.7296783,59
1643554720272,4293.729681,54
1643554720294,4293.7296837,59
1643554720294,4293.7296863,66
1643554720294,4293.7296889,52
1643554720294,4293.7296918,42
1643554720294,4293.7296948,54
1643554720294,4293.7296974,61
1643554720294,4293.7297001,50
1643554720294,4293.7297027,50
1643554720294,4293.7297054,61
1643554720294,4293.729708,61
1643554720317,4293.7297106,57
1643554720317,4293.7297133,54
1643554720317,4293.7297159,50
1643554720317,4293.7297186,50
1643554720317,4293.7297212,61
1643554720317,4293.7297239,76
1643554720317,4293.7297265,76
1643554720317,4294.2804127,69
1643554720317,4294.2804232,66
1643554720317,4294.2804264,64
1643554720339,4294.2804292,66
1643554720339,4294.2804321,73
1643554720339,4294.2804349,76
1643554720339,4294.2804377,76
1643554720339,4294.2804404,59
1643554720339,4294.2804431,11
1643554720339,4294.2804458,-23
1643554720339,4294.2804486,-11
1643554720339,4294.2804516,11
1643554720339,4294.2804543,9
1643554720362,4294.280457,-2
1643554720362,4294.2804597,2
1643554720362,4294.2804623,16
1643554720362,4294.2804656,35
1643554720362,4294.2804683,47
1643554720362,4294.280471,50
1643554720362,4294.2804741,50
1643554720362,4294.2804772,45
1643554720362,4294.2804799,38
1643554720362,4294.2804826,47
1643554720384,4294.2804852,57
1643554720384,4294.280488,50
1643554720384,4294.2804906,47
1643554720384,4294.2804933,54
1643554720384,4294.2804959,64
1643554720384,4294.2804986,102
1643554720384,4294.2805013,123
1643554720384,4294.280504,-104
1643554720384,4294.2805067,-586
1643554720384,4294.2805094,-786
1643554720406,4294.2805122,-164
1643554720406,4294.2805159,791
1643554720406,4294.2805188,1022
1643554720406,4294.2805217,612
1643554720761,4294.2805246,329
1643554720761,4294.2805275,202
1643554720761,4294.2805311,54
1643554720761,4294.2805338,0
1643554720761,4294.2805365,21
1643554720761,4294.2805393,4
1643554720761,4294.2805429,-14
1643554720761,4294.2805456,-7
1643554720761,4294.2805484,-9
1643554720761,4294.2805511,-21
1643554720783,4294.2805538,-21
1643554720783,4294.2805564,-16
1643554720783,4294.2805592,-14
1643554720783,4294.2805618,-23
1643554720783,4294.2805645,-28
1643554720783,4294.2805672,-23
1643554720783,4294.2805699,-26
1643554720783,4294.2805727,-35
1643554720783,4294.2805762,-35
1643554720783,4294.2805791,-40
1643554720806,4294.280582,-50
1643554720806,4294.280586,-47
1643554720806,4294.2805889,-47
1643554720806,4294.2805943,-59
1643554720806,4294.2805975,-66
1643554720806,4294.2806008,-66
1643554720806,4294.2806053,-61
1643554720806,4294.2806086,-47
1643554720806,4294.2806136,-40
1643554720806,4294.2806181,-42
1643554720829,4294.2806228,-38
1643554720829,4294.2806257,-26
1643554720829,4294.2806286,-21
1643554720829,4294.2806333,-7
1643554720829,4294.2806361,21
1643554720829,4294.2806391,45
1643554720829,4294.7839263,64
1643554720829,4294.7839386,78
1643554720829,4294.7839422,85
1643554720829,4294.7839462,88
1643554720849,4294.7839492,90
1643554720849,4294.7839521,88
1643554720849,4294.7839549,83
1643554720849,4294.7839578,71
1643554720849,4294.7839616,54
1643554720849,4294.7839645,52
1643554720849,4294.7839674,54
1643554720849,4294.7839702,50
1643554720849,4294.7839731,42
1643554720849,4294.7839759,28
1643554720873,4294.7839788,21
1643554720873,4294.7839826,23
1643554720873,4294.7839854,21
1643554720873,4294.7839883,30
1643554720873,4294.7839911,42
1643554720873,4294.7839939,30
1643554720873,4294.7839967,19
1643554720873,4294.7839996,35
1643554720873,4294.7840025,42
1643554720873,4294.7840053,30
1643554720895,4294.7840082,40
1643554720895,4294.7840111,57
1643554720895,4294.784016,47
1643554720895,4294.7840188,42
1643554720895,4294.7840217,57
1643554720895,4294.7840246,66
1643554720895,4294.7840274,57
1643554720895,4294.7840303,35
1643554720895,4294.7840331,4
1643554720895,4294.7840361,-2
1643554720916,4294.7840398,21
1643554720916,4294.7840427,38
1643554720916,4294.7840455,33
1643554720916,4294.7840483,19
1643554721294,4294.7840512,35
1643554721294,4294.7840541,66
1643554721294,4294.7840567,73
1643554721294,4294.7840594,69
1643554721294,4294.7840621,76
1643554721294,4294.7840651,83
1643554721294,4294.7840678,78
1643554721294,4294.7840705,83
1643554721294,4294.7840732,88
1643554721294,4294.784076,88
1643554721316,4294.7840787,88
1643554721316,4294.7840814,85
1643554721316,4294.7840841,88
1643554721316,4294.784087,121
1643554721316,4294.7840898,162
1643554721316,4294.7840928,45
1643554721316,4294.7840958,-352
1643554721316,4294.7840986,-729
1643554721316,4294.7841015,-448
1643554721316,4294.7841054,503
1643554721339,4294.7841083,1082
1643554721339,4294.7841132,789
1643554721339,4294.784116,374
1643554721339,4294.7841189,238
1643554721339,4294.7841217,116
1643554721339,4294.7841246,23
1643554721339,4294.7841275,38
1643554721339,4294.7841322,35
1643554721339,4294.7841361,7
1643554721339,4294.7841408,9
1643554721362,4294.7841453,11
1643554721362,4294.7841491,-2
1643554721362,4294.7841519,-4
1643554721362,4294.7841558,-7
1643554721362,4294.7841587,-7
1643554721362,4295.3350317,-11
1643554721362,4295.3350431,-30
1643554721362,4295.3350463,-33
1643554721362,4295.3350491,-23
1643554721362,4295.3350517,-30
1643554721384,4295.3350543,-45
1643554721384,4295.3350724,-47
1643554721384,4295.33508,-57
1643554721384,4295.3351098,-64
1643554721384,4295.3351131,-64
1643554721384,4295.3351159,-71
1643554721384,4295.3351186,-97
1643554721384,4295.3351212,-126
1643554721384,4295.3351275,-128
1643554721384,4295.3351307,-112
1643554721404,4295.3351335,-109
1643554721404,4295.3351361,-104
1643554721404,4295.3351392,-92
1643554721404,4295.3351419,-90
1643554721404,4295.3351447,-83
1643554721404,4295.3351478,-59
1643554721404,4295.3351504,-28
1643554721404,4295.3351531,-7
1643554721404,4295.3351558,14
1643554721404,4295.3351586,30
1643554721428,4295.3351616,40
1643554721428,4295.3351677,54
1643554721428,4295.3351704,59
1643554721428,4295.3351733,47
1643554721428,4295.3351761,50
1643554721428,4295.3351809,59
1643554721428,4295.3351836,47
1643554721428,4295.3351866,35
1643554721428,4295.3351904,40
1643554721428,4295.3351931,47
1643554721449,4295.3351958,45
1643554721449,4295.3351985,45
1643554721449,4295.3352011,38
1643554721449,4295.3352038,28
1643554721895,4295.3352064,38
1643554721895,4295.335209,52
1643554721895,4295.3352117,52
1643554721895,4295.3352143,57
1643554721895,4295.3352169,59
1643554721895,4295.3352195,47
1643554721895,4295.3352222,45
1643554721895,4295.3352247,69
1643554721895,4295.3352274,73
1643554721895,4295.3352301,47
1643554721927,4295.3352327,33
1643554721927,4295.3352353,47
1643554721927,4295.335238,61
1643554721927,4295.3352406,64
1643554721927,4295.3352432,66
1643554721927,4295.3352458,54
1643554721927,4295.3352483,19
1643554721927,4295.3352509,-4
1643554721927,4295.3352535,4
1643554721927,4295.335256,21
1643554721961,4295.3352586,11
1643554721961,4295.3352612,0
1643554721961,4295.3352639,16
1643554721961,4295.3352664,50
1643554721961,4295.335269,78
1643554721961,4295.3352716,85
1643554721961,4295.3352742,66
1643554721961,4295.3352768,42
1643554721961,4295.3352793,40
1643554721961,4295.3352818,42
1643554721994,4295.3352845,47
1643554721994,4295.3352872,59
1643554721994,4295.3352897,57
1643554721994,4295.3352923,50
1643554721994,4295.929965,42
1643554721994,4295.9299758,52
1643554721994,4295.9299792,107
1643554721994,4295.9299819,54
1643554721994,4295.9299847,-312
1643554721994,4295.9299874,-763
1643554722028,4295.92999,-631
1643554722028,4295.9299927,252
1643554722028,4295.9299953,965
1643554722028,4295.9299979,810
1643554722028,4295.9300005,379
1643554722028,4295.9300031,200
1643554722028,4295.9300058,83
1643554722028,4295.9300084,-35
1643554722028,4295.9300111,-40
1643554722028,4295.9300137,-26
1643554722061,4295.9300163,-52
1643554722061,4295.9300189,-64
1643554722061,4295.9300214,-54
1643554722061,4295.9300241,-52
1643554722061,4295.9300273,-61
1643554722061,4295.9300299,-69
1643554722061,4295.9300325,-66
1643554722061,4295.9300351,-73
1643554722061,4295.9300378,-73
1643554722061,4295.9300404,-47
1643554722094,4295.930043,-45
1643554722094,4295.9300456,-64
1643554722094,4295.9300482,-81
1643554722094,4295.9300508,-95
1643554722094,4295.9300534,-88
1643554722094,4295.930056,-90
1643554722094,4295.9300586,-102
1643554722094,4295.9300612,-92
1643554722094,4295.9300638,-85
1643554722094,4295.9300664,-109
1643554722128,4295.930069,-131
1643554722128,4295.9300715,-114
1643554722128,4295.9300741,-97
1643554722128,4295.9300767,-121
1643554722461,4295.9300793,-119
1643554722461,4295.9300819,-85
1643554722461,4295.9300845,-83
1643554722461,4295.9300871,-69
1643554722461,4295.9300897,-14
1643554722461,4295.9300923,21
1643554722461,4295.930095,35
1643554722461,4295.930103,66
1643554722461,4295.9301058,83
1643554722461,4295.9301084,69
1643554722495,4295.930111,64
1643554722495,4295.9301136,78
1643554722495,4295.9301163,90
1643554722495,4295.9301189,88
1643554722495,4295.9301216,78
1643554722495,4295.9301243,76
1643554722495,4295.9301269,59
1643554722495,4295.9301295,45
1643554722495,4295.9301321,50
1643554722495,4295.9301353,47
1643554722528,4295.930138,40
1643554722528,4295.9301406,45
1643554722528,4295.9301432,38
1643554722528,4295.9301458,33
1643554722528,4295.9301486,42
1643554722528,4295.9301512,47
1643554722528,4295.9301538,40
1643554722528,4295.9301591,38
1643554722528,4295.9301664,47
1643554722528,4295.9301695,59
1643554722550,4295.9301723,59
1643554722550,4295.9301751,52
1643554722550,4295.930178,50
1643554722550,4296.4838833,61
1643554722550,4296.4838933,71
1643554722550,4296.4838973,54
1643554722550,4296.4839004,38
1643554722550,4296.4839044,23
1643554722550,4296.4839073,16
1643554722550,4296.4839111,21
1643554722571,4296.483914,28
1643554722571,4296.4839169,14
1643554722571,4296.4839198,-19
1643554722571,4296.4839346,-11
1643554722571,4296.4839478,26
1643554722571,4296.4839519,33
1643554722571,4296.4839549,23
1643554722571,4296.4839578,33
1643554722571,4296.4839605,40
1643554722571,4296.4839635,33
1643554722594,4296.4839662,21
1643554722594,4296.4839689,28
1643554722594,4296.4839715,47
1643554722594,4296.4839741,59
1643554722594,4296.4839767,52
1643554722594,4296.4839793,45
1643554722594,4296.4839818,66
1643554722594,4296.4839844,109
1643554722594,4296.483987,21
1643554722594,4296.4839901,-374
1643554722616,4296.4839939,-808
1643554722616,4296.4839973,-593
1643554722616,4296.4839999,367
1643554722616,4296.4840034,1049
1643554722616,4296.4840069,839
1643554722616,4296.4840097,431
1643554722616,4296.4840136,276
1643554722616,4296.4840166,126
1643554722616,4296.4840203,-4
1643554722616,4296.4840231,2
1643554722639,4296.4840259,19
1643554722639,4296.4840288,-16
1643554722639,4296.4840316,-23
1643554722639,4296.4840344,-7
1643554722994,4296.4840372,-14
1643554722994,4296.48404,-33
1643554722994,4296.4840426,-35
1643554722994,4296.4840452,-28
1643554722994,4296.4840479,-23
1643554722994,4296.4840506,-33
1643554722994,4296.4840533,-38
1643554722994,4296.484056,-38
1643554722994,4296.4840587,-40
1643554722994,4296.484062,-35
1643554723016,4296.4840646,-45
1643554723016,4296.4840672,-71
1643554723016,4296.4840699,-81
1643554723016,4296.4840725,-81
1643554723016,4296.4840751,-85
1643554723016,4296.4840777,-88
1643554723016,4296.4840804,-83
1643554723016,4296.484083,-78
1643554723016,4296.4840857,-81
1643554723016,4296.4840883,-76
1643554723038,4296.484091,-69
1643554723038,4296.4840936,-64
1643554723038,4296.4840962,-52
1643554723038,4296.4840989,-35
1643554723038,4296.4841019,-19
1643554723038,4296.4841047,-4
1643554723038,4296.4841076,11
1643554723038,4296.4841105,42
1643554723038,4296.4841134,69
1643554723038,4296.4841163,73
1643554723061,4296.4841215,76
1643554723061,4296.4841244,90
1643554723061,4297.0298051,97
1643554723061,4297.029819,83
1643554723061,4297.0298226,73
1643554723061,4297.0298276,76
1643554723061,4297.0298306,69
1643554723061,4297.0298354,59
1643554723061,4297.0298385,61
1643554723061,4297.0298432,57
1643554723083,4297.0298462,52
1643554723083,4297.0298508,50
1643554723083,4297.0298539,42
1643554723083,4297.0298586,47
1643554723083,4297.0298616,57
1643554723083,4297.0298662,45
1643554723083,4297.0298692,9
1643554723083,4297.029874,2
1643554723083,4297.029877,21
1643554723083,4297.0298817,19
1643554723105,4297.0298847,16
1643554723105,4297.0298895,19
1643554723105,4297.0298926,21
1643554723105,4297.029898,28
1643554723105,4297.029901,33
1643554723105,4297.0299058,35
1643554723105,4297.0299089,47
1643554723105,4297.029914,42
1643554723105,4297.029917,7
1643554723105,4297.0299218,-11
1643554723128,4297.0299248,-2
1643554723128,4297.0299295,11
1643554723128,4297.0299326,11
1643554723128,4297.0299372,7
1643554723128,4297.0299403,16
1643554723128,4297.0299454,38
1643554723128,4297.0299484,57
1643554723128,4297.0299531,61
1643554723128,4297.0299562,61
1643554723128,4297.0299608,61
1643554723149,4297.0299638,69
1643554723149,4297.0299686,73
1643554723149,4297.0299717,69
1643554723149,4297.0299764,71
1643554723638,4297.0299794,73
1643554723638,4297.0299823,73
1643554723638,4297.0299851,78
1643554723638,4297.029988,83
1643554723638,4297.0299908,109
1643554723638,4297.0299935,104
1643554723638,4297.0299963,-150
1643554723638,4297.0299991,-634
1643554723638,4297.0300018,-815
1643554723638,4297.0300046,-112
1643554723661,4297.0300074,934
1643554723661,4297.0300102,1113
1643554723661,4297.0300131,581
1643554723661,4297.0300158,276
1643554723661,4297.0300186,178
1643554723661,4297.0300214,33
1643554723661,4297.0300241,-16
1643554723661,4297.0300268,9
1643554723661,4297.0300326,-2
1643554723661,4297.0300355,-23
1643554723683,4297.0300384,-16
1643554723683,4297.0300414,-7
1643554723683,4297.0300443,-16
1643554723683,4297.0300472,-28
1643554723683,4297.0300501,-33
1643554723683,4297.0300529,-33
1643554723683,4297.0300558,-28
1643554723683,4297.0300588,-21
1643554723683,4297.0300616,-21
1643554723683,4297.0300645,-28
1643554723706,4297.0300677,-40
1643554723706,4297.6789761,-50
1643554723706,4297.6789887,-50
1643554723706,4297.6789922,-47
1643554723706,4297.6789953,-52
1643554723706,4297.6789983,-61
1643554723706,4297.6790029,-71
1643554723706,4297.6790059,-88
1643554723706,4297.6790109,-90
1643554723706,4297.6790138,-90
1643554723728,4297.6790168,-90
1643554723728,4297.6790217,-69
1643554723728,4297.6790245,-50
1643554723728,4297.6790275,-54
1643554723728,4297.6790325,-52
1643554723728,4297.6790353,-45
1643554723728,4297.6790388,-38
1643554723728,4297.6790423,-16
1643554723728,4297.6790454,11
1643554723728,4297.6790492,23
1643554723751,4297.6790521,35
1643554723751,4297.679057,47
1643554723751,4297.67906,50
1643554723751,4297.6790647,52
1643554723751,4297.6790675,54
1643554723751,4297.6790704,47
1643554723751,4297.6790734,40
1643554723751,4297.6790772,42
1643554723751,4297.6790802,47
1643554723751,4297.6790849,45
1643554723772,4297.6790893,40
1643554723772,4297.6790941,35
1643554723772,4297.6790971,40
1643554723772,4297.6791022,35
1643554723772,4297.6791051,23
1643554723772,4297.6791089,26
1643554723772,4297.6791119,42
1643554723772,4297.6791156,45
1643554723772,4297.6791186,33
1643554723772,4297.6791225,30
1643554723794,4297.6791256,40
1643554723794,4297.6791304,42
1643554723794,4297.6791341,40
1643554723794,4297.6791381,45
1643554724239,4297.679141,47
1643554724239,4297.679144,42
1643554724239,4297.679147,45
1643554724239,4297.6791501,52
1643554724239,4297.6791529,57
1643554724239,4297.6791557,52
1643554724239,4297.6791585,26
1643554724239,4297.6791612,-2
1643554724239,4297.6791641,4
1643554724239,4297.6791668,26
1643554724261,4297.6791695,23
1643554724261,4297.6791726,4
1643554724261,4297.6791754,14
1643554724261,4297.6791781,52
1643554724261,4297.6791808,66
1643554724261,4297.6791837,59
1643554724261,4297.6791866,66
1643554724261,4297.6791895,81
1643554724261,4297.6791938,71
1643554724261,4297.6791969,61
1643554724283,4297.6792016,71
1643554724283,4297.6792044,76
1643554724283,4297.6792074,71
1643554724283,4297.6792104,71
1643554724283,4297.6792146,76
1643554724283,4297.6792178,83
1643554724283,4297.6792227,121
1643554724283,4297.6792257,123
1643554724283,4297.6792296,-114
1643554724283,4297.6792326,-584
1643554724305,4298.2797271,-770
1643554724305,4298.2797534,-95
1643554724305,4298.2797608,939
1643554724305,4298.2797659,1142
1643554724305,4298.279769,622
1643554724305,4298.2797737,295
1643554724305,4298.2797766,183
1643554724305,4298.2797813,35
1643554724305,4298.2797844,-14
1643554724305,4298.2797888,19
1643554724327,4298.2797918,-7
1643554724327,4298.2797963,-45
1643554724327,4298.2797994,-40
1643554724327,4298.2798043,-42
1643554724327,4298.2798077,-54
1643554724327,4298.279813,-47
1643554724327,4298.279816,-42
1643554724327,4298.2798207,-50
1643554724327,4298.2798236,-50
1643554724327,4298.2798285,-45
1643554724349,4298.2798317,-47
1643554724349,4298.2798363,-47
1643554724349,4298.2798392,-50
1643554724349,4298.279843,-57
1643554724349,4298.2798459,-69
1643554724349,4298.2798497,-71
1643554724349,4298.2798526,-59
1643554724349,4298.2798573,-61
1643554724349,4298.2798604,-69
1643554724349,4298.2798649,-64
1643554724373,4298.2798679,-64
1643554724373,4298.2798708,-71
1643554724373,4298.2798736,-66
1643554724373,4298.2798766,-52
1643554724373,4298.2798795,-45
1643554724373,4298.2798823,-42
1643554724373,4298.2798852,-35
1643554724373,4298.2798899,-30
1643554724373,4298.2798927,-21
1643554724373,4298.2798956,7
1643554724395,4298.2798994,26
1643554724395,4298.2799023,33
1643554724395,4298.2799053,45
1643554724395,4298.2799091,59
1643554724838,4298.2799123,71
1643554724838,4298.2799151,76
1643554724838,4298.2799179,69
1643554724838,4298.2799207,61
1643554724838,4298.2799235,59
1643554724838,4298.2799262,61
1643554724838,4298.2799289,64
1643554724838,4298.2799316,66
1643554724838,4298.2799343,66
1643554724838,4298.279937,64
1643554724861,4298.2799397,66
1643554724861,4298.2799426,59
1643554724861,4298.2799455,52
1643554724861,4298.2799484,61
1643554724861,4298.2799511,61
1643554724861,4298.2799539,52
1643554724861,4298.2799567,59
1643554724861,4298.2799596,69
1643554724861,4298.2799627,64
1643554724861,4298.2799675,59
1643554724882,4298.2799705,61
1643554724882,4298.2799751,66
1643554724882,4298.2799781,69
1643554724882,4298.279982,69
1643554724882,4298.279985,64
1643554724882,4298.2799888,61
1643554724882,4298.2799921,71
1643554724882,4298.2799969,69
1643554724882,4298.2799999,59
1643554724882,4298.8801435,40
1643554724905,4298.8801551,11
1643554724905,4298.8801588,11
1643554724905,4298.8801618,30
1643554724905,4298.8801653,35
1643554724905,4298.8801682,26
1643554724905,4298.8801732,23
1643554724905,4298.880176,40
1643554724905,4298.880179,57
1643554724905,4298.8801837,59
1643554724905,4298.8801864,61
1643554724927,4298.8801893,73
1643554724927,4298.8801922,83
1643554724927,4298.880195,78
1643554724927,4298.8801978,71
1643554724927,4298.8802006,69
1643554724927,4298.8802035,50
1643554724927,4298.8802064,30
1643554724927,4298.8802093,35
1643554724927,4298.8802123,47
1643554724927,4298.880216,81
1643554724949,4298.880219,107
1643554724949,4298.8802487,-71
1643554724949,4298.8802578,-512
1643554724949,4298.8802613,-774
1643554724949,4298.880266,-271
1643554724949,4298.8802691,684
1643554724949,4298.8802729,1015
1643554724949,4298.8802759,627
1643554724949,4298.8802806,290
1643554724949,4298.8802834,159
1643554724972,4298.8802864,23
1643554724972,4298.8802894,-38
1643554724972,4298.8802945,-16
1643554724972,4298.8802986,-19
1643554724972,4298.8803032,-35
1643554724972,4298.8803075,-30
1643554724972,4298.880312,-30
1643554724972,4298.880315,-47
1643554724972,4298.8803179,-57
1643554724972,4298.8803225,-52
1643554724994,4298.8803253,-47
1643554724994,4298.8803282,-54
1643554724994,4298.880333,-59
1643554724994,4298.8803361,-42
1643554725260,4298.8803391,-47
1643554725260,4298.880342,-78
1643554725260,4298.8803447,-76
1643554725260,4298.8803474,-64
1643554725260,4298.8803502,-81
1643554725260,4298.8803529,-90
1643554725260,4298.8803559,-85
1643554725260,4298.8803587,-88
1643554725260,4298.8803614,-100
1643554725260,4298.8803641,-107
1643554725282,4298.8803668,-123
1643554725282,4298.8803696,-128
1643554725282,4298.8803723,-109
1643554725282,4298.880375,-107
1643554725282,4298.8803779,-114
1643554725282,4298.8803806,-109
1643554725282,4298.8803834,-97
1643554725282,4298.8803877,-59
1643554725282,4298.8803906,-14
1643554725282,4298.8803936,4
1643554725305,4298.8803991,21
1643554725305,4298.880402,42
1643554725305,4298.8804048,45
1643554725305,4298.8804077,54
1643554725305,4298.8804107,57
1643554725305,4298.880416,50
1643554725305,4298.8804191,59
1643554725305,4298.8804352,71
1643554725305,4299.2839298,61
1643554725305,4299.2839411,54
1643554725327,4299.2839456,57
1643554725327,4299.2839506,59
1643554725327,4299.2839537,57
1643554725327,4299.2839586,50
1643554725327,4299.2839631,42
1643554725327,4299.2839671,33
1643554725327,4299.28397,35
1643554725327,4299.2839738,45
1643554725327,4299.2839768,45
1643554725327,4299.2839817,42
1643554725349,4299.2839846,47
1643554725349,4299.2839876,42
1643554725349,4299.2839915,33
1643554725349,4299.2839944,38
1643554725349,4299.2839983,45
1643554725349,4299.2840012,42
1643554725349,4299.2840041,30
1643554725349,4299.2840095,28
1643554725349,4299.2840142,38
1643554725349,4299.2840172,38
1643554725372,4299.2840201,30
1643554725372,4299.2840229,9
1643554725372,4299.2840323,-16
1643554725372,4299.2840351,-14
1643554725372,4299.2840379,-2
1643554725372,4299.2840407,-11
1643554725372,4299.2840434,-28
1643554725372,4299.2840463,-26
1643554725372,4299.2840491,0
1643554725372,4299.2840519,26
1643554725394,4299.2840546,30
1643554725394,4299.2840572,30
1643554725394,4299.2840599,30
1643554725394,4299.2840626,23
1643554725394,4299.2840653,26
1643554725394,4299.2840679,28
1643554725394,4299.2840706,26
1643554725394,4299.2840733,30
1643554725394,4299.284076,33
1643554725394,4299.2840788,35
1643554725416,4299.2840814,47
1643554725416,4299.2840846,76
1643554725416,4299.2840873,100
1643554725416,4299.28409,-61
1643554725905,4299.2840927,-500
1643554725905,4299.2840954,-770
1643554725905,4299.2840981,-252
1643554725905,4299.2841009,710
1643554725905,4299.2841036,1034
1643554725905,4299.2841063,667
1643554725905,4299.2841089,367
1643554725905,4299.2841116,224
1643554725905,4299.2841143,47
1643554725905,4299.284117,-28
1643554725927,4299.2841197,-2
1643554725927,4299.2841223,-4
1643554725927,4299.284125,-30
1643554725927,4299.2841277,-35
1643554725927,4299.2841304,-35
1643554725927,4299.284133,-42
1643554725927,4299.2841357,-47
1643554725927,4299.2841385,-42
1643554725927,4299.2841412,-40
1643554725927,4299.2841441,-42
1643554725950,4299.284147,-52
1643554725950,4299.2841496,-54
1643554725950,4299.2841526,-50
1643554725950,4299.2841553,-50
1643554725950,4299.284158,-50
1643554725950,4299.2841609,-52
1643554725950,4299.2841636,-61
1643554725950,4299.9290485,-69
1643554725950,4299.9290612,-73
1643554725950,4299.9290668,-83
1643554725972,4299.9290717,-88
1643554725972,4299.9290764,-90
1643554725972,4299.9290812,-97
1643554725972,4299.929084,-102
1643554725972,4299.929087,-102
1643554725972,4299.9290917,-107
1643554725972,4299.9290954,-102
1643554725972,4299.9291002,-85
1643554725972,4299.9291047,-71
1643554725972,4299.9291086,-59
1643554725993,4299.9291115,-47
1643554725993,4299.9291162,-26
1643554725993,4299.9291191,-2
1643554725993,4299.9291221,16
1643554725993,4299.929125,33
1643554725993,4299.9291288,42
1643554725993,4299.9291318,50
1643554725993,4299.9291365,54
1643554725993,4299.9291393,47
1643554725993,4299.9291422,42
1643554726015,4299.9291452,47
1643554726015,4299.9291498,47
1643554726015,4299.9291528,45
1643554726015,4299.9291558,38
1643554726015,4299.9291605,35
1643554726015,4299.9291633,38
1643554726015,4299.9291663,38
1643554726015,4299.9291709,38
1643554726015,4299.9291738,40
1643554726015,4299.9291768,38
1643554726038,4299.9291805,35
1643554726038,4299.9291835,45
1643554726038,4299.9291882,57
1643554726038,4299.9291929,59
1643554726038,4299.9291974,54
1643554726038,4299.9292003,47
1643554726038,4299.9292033,50
1643554726038,4299.9292082,57
1643554726038,4299.9292109,52
1643554726038,4299.9292139,54
1643554726061,4299.9292177,78
1643554726061,4299.9292207,78
1643554726061,4299.9292253,57
1643554726061,4299.9292281,40
1643554726349,4299.9292311,21
1643554726349,4299.929234,21
1643554726349,4299.9292369,40
1643554726349,4299.9292396,40
1643554726349,4299.9292423,28
1643554726349,4299.9292451,26
1643554726349,4299.9292478,54
1643554726349,4299.9292505,83
1643554726349,4299.9292532,83
1643554726349,4299.9292559,83
1643554726378,4299.9292586,90
1643554726378,4299.9292613,92
1643554726378,4299.9292641,92
1643554726378,4299.9292669,90
1643554726378,4299.9292696,95
1643554726378,4299.9292724,100
1643554726378,4299.929275,100
1643554726378,4299.9292781,90
1643554726378,4299.9292811,92
1643554726378,4299.9292864,138
1643554726396,4299.9292893,157
1643554726396,4299.9292932,-52
1643554726396,4299.9292963,-505
1643554726396,4299.929301,-729
1643554726396,4299.9293038,-133
1643554726396,4299.9293068,877
1643554726396,4300.3819835,1127
1643554726396,4300.3819959,646
1643554726396,4300.3819994,319
1643554726396,4300.3820025,195
1643554726416,4300.3820064,33
1643554726416,4300.3820095,-28
1643554726416,4300.3820141,2
1643554726416,4300.3820169,-9
1643554726416,4300.3820198,-33
1643554726416,4300.3820227,-26
1643554726416,4300.382029,-23
1643554726416,4300.3820505,-30
1643554726416,4300.3820651,-28
1643554726416,4300.3820714,-26
1643554726439,4300.3820747,-26
1643554726439,4300.3820796,-28
1643554726439,4300.3820827,-35
1643554726439,4300.3820875,-47
1643554726439,4300.3820906,-57
1643554726439,4300.3820953,-57
1643554726439,4300.3820983,-57
1643554726439,4300.3821029,-64
1643554726439,4300.3821059,-64
1643554726439,4300.3821098,-66
1643554726461,4300.3821126,-81
1643554726461,4300.3821155,-83
1643554726461,4300.3821182,-81
1643554726461,4300.3821211,-85
1643554726461,4300.3821241,-78
1643554726461,4300.3821294,-69
1643554726461,4300.3821325,-69
1643554726461,4300.3821373,-69
1643554726461,4300.3821403,-64
1643554726461,4300.3821452,-61
1643554726483,4300.3821483,-50
1643554726483,4300.382153,-19
1643554726483,4300.3821561,7
1643554726483,4300.3821607,23
1643554726483,4300.3821638,40
1643554726483,4300.3821686,57
1643554726483,4300.3821716,64
1643554726483,4300.3821762,66
1643554726483,4300.3821793,69
1643554726483,4300.382184,76
1643554726506,4300.3821871,73
1643554726506,4300.3821922,69
1643554726506,4300.3821952,76
1643554726506,4300.3822001,78
1643554726905,4300.3822032,71
1643554726905,4300.3822061,71
1643554726905,4300.3822089,69
1643554726905,4300.3822117,57
1643554726905,4300.3822145,57
1643554726905,4300.3822172,64
1643554726905,4300.38222,61
1643554726905,4300.3822228,66
1643554726905,4300.3822255,71
1643554726905,4300.3822283,66
1643554726938,4300.382231,59
1643554726938,4300.3822339,66
1643554726938,4300.3822367,73
1643554726938,4300.3822394,73
1643554726938,4300.3822422,76
1643554726938,4300.3822451,78
1643554726938,4300.38225,64
1643554726938,4300.3822531,47
1643554726938,4300.3822577,57
1643554726938,4300.3822607,76
1643554726971,4300.3822655,66
1643554726971,4300.3822685,40
1643554726971,4300.3822733,14
1643554726971,4300.3822764,4
1643554726971,4300.3822812,14
1643554726971,4300.934115,21
1643554726971,4300.934127,19
1643554726971,4300.9341304,9
1643554726971,4300.9341334,2
1643554726971,4300.934137,16
1643554727004,4300.9341429,40
1643554727004,4300.9341459,45
1643554727004,4300.9341509,42
1643554727004,4300.9341537,50
1643554727004,4300.934158,47
1643554727004,4300.9341613,28
1643554727004,4300.9341642,23
1643554727004,4300.9341671,38
1643554727004,4300.9341698,40
1643554727004,4300.9341726,38
1643554727038,4300.9341754,42
1643554727038,4300.934181,57
1643554727038,4300.934184,104
1643554727038,4300.9341868,45
1643554727038,4300.9341897,-309
1643554727038,4300.9341944,-715
1643554727038,4300.9341973,-512
1643554727038,4300.9342022,395
1643554727038,4300.9342051,1037
1643554727038,4300.934208,825
1643554727071,4300.9342108,410
1643554727071,4300.9342137,243
1643554727071,4300.9342187,109
1643554727071,4300.9342216,-4
1643554727071,4300.9342245,-7
1643554727071,4300.9342274,7
1643554727071,4300.9342301,-7
1643554727071,4300.9342329,-16
1643554727071,4300.9342358,-21
1643554727071,4300.9342387,-23
1643554727105,4300.9342426,-21
1643554727105,4300.9342454,-19
1643554727105,4300.9342482,-21
1643554727105,4300.934251,-26
1643554727105,4300.9342539,-23
1643554727105,4300.9342585,-23
1643554727105,4300.9342613,-30
1643554727105,4300.9342642,-38
1643554727105,4300.934269,-38
1643554727105,4300.9342718,-40
1643554727138,4300.9342746,-45
1643554727138,4300.9342785,-50
1643554727138,4300.9342814,-54
1643554727138,4300.9342852,-61
1643554727537,4300.934288,-73
1643554727537,4300.9342908,-85
1643554727537,4300.9342934,-88
1643554727537,4300.9342961,-85
1643554727537,4300.9342987,-88
1643554727537,4300.9343015,-85
1643554727537,4300.9343041,-78
1643554727537,4300.9343068,-78
1643554727537,4300.9343094,-71
1643554727537,4300.9343125,-45
1643554727560,4300.9343151,-14
1643554727560,4300.9343178,7
1643554727560,4300.9343204,35
1643554727560,4300.9343232,54
1643554727560,4300.9343265,61
1643554727560,4300.9343291,76
1643554727560,4300.9343319,90
1643554727560,4300.9343348,81
1643554727560,4300.9343377,73
1643554727560,4300.9343428,83
1643554727582,4300.9343457,88
1643554727582,4300.9343501,83
1643554727582,4300.934353,83
1643554727582,4300.9343569,83
1643554727582,4301.5805335,81
1643554727582,4301.5805453,71
1643554727582,4301.5805486,69
1643554727582,4301.5805516,69
1643554727582,4301.5805565,73
1643554727582,4301.5805593,78
1643554727605,4301.5805621,76
1643554727605,4301.580565,71
1643554727605,4301.580568,50
1643554727605,4301.5805708,23
1643554727605,4301.5805737,30
1643554727605,4301.5805767,45
1643554727605,4301.5805795,50
1643554727605,4301.5805824,50
1643554727605,4301.5805853,42
1643554727605,4301.5805881,45
1643554727626,4301.5805911,54
1643554727626,4301.5805946,54
1643554727626,4301.5805974,54
1643554727626,4301.5806002,50
1643554727626,4301.5806031,16
1643554727626,4301.5806061,-4
1643554727626,4301.5806099,4
1643554727626,4301.5806128,19
1643554727626,4301.5806157,19
1643554727626,4301.5806194,9
1643554727649,4301.5806224,21
1643554727649,4301.5806252,57
1643554727649,4301.5806281,69
1643554727649,4301.580631,61
1643554727649,4301.5806348,69
1643554727649,4301.5806376,73
1643554727649,4301.5806405,71
1643554727649,4301.5806433,76
1643554727649,4301.5806461,76
1643554727649,4301.580649,78
1643554727672,4301.580652,85
1643554727672,4301.5806567,81
1643554727672,4301.5806606,81
1643554727672,4301.5806646,107
1643554727672,4301.5806675,152
1643554727672,4301.5806704,109
1643554727672,4301.5806743,-200
1643554727672,4301.5806772,-624
1643554727672,4301.5806819,-557
1643554727672,4301.5806847,250
1643554727693,4301.5806876,968
1643554727693,4301.5806905,872
1643554727693,4301.5806952,467
1643554727693,4301.5806979,276
1643554728049,4301.5807008,135
1643554728049,4301.5807036,4
1643554728049,4301.5807064,-4
1643554728049,4301.5807091,11
1643554728049,4301.5807117,-9
1643554728049,4301.5807144,-11
1643554728049,4301.5807173,-7
1643554728049,4301.5807199,-21
1643554728049,4301.5807226,-30
1643554728049,4301.5807252,-28
1643554728072,4301.5807279,-35
1643554728072,4301.5807306,-40
1643554728072,4301.5807332,-33
1643554728072,4301.5807358,-33
1643554728072,4301.5807384,-40
1643554728072,4301.5807413,-40
1643554728072,4301.5807439,-45
1643554728072,4301.5807466,-59
1643554728072,4301.5807493,-71
1643554728072,4301.5807522,-76
1643554728094,4301.5807551,-81
1643554728094,4301.5807598,-83
1643554728094,4301.5807626,-100
1643554728094,4302.0846184,-126
1643554728094,4302.0846748,-128
1643554728094,4302.0846822,-123
1643554728094,4302.0846856,-116
1643554728094,4302.0846884,-114
1643554728094,4302.0846912,-123
1643554728094,4302.0846939,-121
1643554728116,4302.0846965,-102
1643554728116,4302.0846991,-73
1643554728116,4302.0847018,-30
1643554728116,4302.0847045,4
1643554728116,4302.0847071,23
1643554728116,4302.0847097,42
1643554728116,4302.0847124,30
1643554728116,4302.084715,26
1643554728116,4302.0847176,50
1643554728116,4302.0847202,54
1643554728138,4302.0847228,45
1643554728138,4302.0847254,42
1643554728138,4302.084728,47
1643554728138,4302.0847307,33
1643554728138,4302.0847333,14
1643554728138,4302.084736,30
1643554728138,4302.0847387,47
1643554728138,4302.0847413,26
1643554728138,4302.0847439,11
1643554728138,4302.0847465,38
1643554728161,4302.0847491,42
1643554728161,4302.0847519,21
1643554728161,4302.0847545,26
1643554728161,4302.0847571,42
1643554728161,4302.0847597,38
1643554728161,4302.0847623,40
1643554728161,4302.0847649,54
1643554728161,4302.0847675,50
1643554728161,4302.0847702,35
1643554728161,4302.0847728,30
1643554728183,4302.0847762,35
1643554728183,4302.0847789,47
1643554728183,4302.0847818,64
1643554728183,4302.0847845,59
1643554728183,4302.0847871,30
1643554728183,4302.0847897,2
1643554728183,4302.0847923,-7
1643554728183,4302.0847949,-2
1643554728183,4302.0847975,7
1643554728183,4302.0848002,9
1643554728205,4302.0848027,9
1643554728205,4302.0848053,21
1643554728205,4302.0848079,33
1643554728205,4302.0848105,38
1643554728694,4302.0848131,50
1643554728694,4302.0848157,59
1643554728694,4302.0848184,59
1643554728694,4302.084821,59
1643554728694,4302.0848236,61
1643554728694,4302.0848263,64
1643554728694,4302.0848289,61
1643554728694,4302.0848316,57
1643554728694,4302.0848342,54
1643554728694,4302.0848369,64
1643554728717,4302.0848394,81
1643554728717,4302.0848421,109
1643554728717,4302.0848447,64
1643554728717,4302.0848473,-240
1643554728717,4302.08485,-679
1643554728717,4302.0848526,-634
1643554728717,4302.0848552,193
1643554728717,4302.0848578,968
1643554728717,4302.0848604,901
1643554728717,4302.084863,495
1643554728738,4302.0848656,302
1643554728738,4302.0848683,147
1643554728738,4302.7297434,7
1643554728738,4302.7297569,0
1643554728738,4302.7297606,14
1643554728738,4302.7297655,-16
1643554728738,4302.7297685,-23
1643554728738,4302.7297732,-16
1643554728738,4302.729776,-28
1643554728738,4302.7297789,-33
1643554728761,4302.7297816,-30
1643554728761,4302.7297845,-35
1643554728761,4302.7297872,-35
1643554728761,4302.72979,-47
1643554728761,4302.7297928,-83
1643554728761,4302.7297957,-92
1643554728761,4302.7297986,-76
1643554728761,4302.7298014,-83
1643554728761,4302.7298042,-83
1643554728761,4302.729807,-76
1643554728783,4302.7298098,-88
1643554728783,4302.7298127,-104
1643554728783,4302.7298155,-104
1643554728783,4302.7298183,-104
1643554728783,4302.7298211,-109
1643554728783,4302.729824,-114
1643554728783,4302.7298268,-119
1643554728783,4302.7298296,-116
1643554728783,4302.7298324,-119
1643554728783,4302.7298352,-114
1643554728805,4302.729838,-104
1643554728805,4302.7298408,-92
1643554728805,4302.7298437,-50
1643554728805,4302.7298465,-14
1643554728805,4302.7298494,0
1643554728805,4302.7298523,28
1643554728805,4302.7298552,54
1643554728805,4302.7298581,59
1643554728805,4302.7298609,66
1643554728805,4302.7298637,78
1643554728827,4302.7298666,85
1643554728827,4302.7298695,81
1643554728827,4302.7298724,69
1643554728827,4302.7298752,66
1643554728827,4302.729878,71
1643554728827,4302.7298808,73
1643554728827,4302.7298837,64
1643554728827,4302.7298887,57
1643554728827,4302.7298926,54
1643554728827,4302.7298977,52
1643554728849,4302.7299006,50
1643554728849,4302.7299235,59
1643554728849,4302.729939,69
1643554728849,4302.7299434,64
1643554729293,4302.7299497,66
1643554729293,4302.7299526,69
1643554729293,4302.7299555,59
1643554729293,4302.7299583,59
1643554729293,4302.7299611,66
1643554729293,4302.7299639,69
1643554729293,4302.7299667,69
1643554729293,4302.7299694,78
1643554729293,4302.7299721,85
1643554729293,4302.7299749,85
1643554729315,4302.7299776,78
1643554729315,4302.7299804,54
1643554729315,4302.7299831,28
1643554729315,4302.7299858,23
1643554729315,4302.7299886,38
1643554729315,4302.7299916,50
1643554729315,4302.7299945,42
1643554729315,4302.7299975,42
1643554729315,4302.7300025,71
1643554729315,4302.7300054,92
1643554729338,4302.7300084,85
1643554729338,4303.3292206,85
1643554729338,4303.3292333,97
1643554729338,4303.3292374,88
1643554729338,4303.3292424,85
1643554729338,4303.3292454,97
1643554729338,4303.3292485,97
1643554729338,4303.3292531,95
1643554729338,4303.3292559,95
1643554729338,4303.3292588,92
1643554729361,4303.3292616,100
1643554729361,4303.3292644,133
1643554729361,4303.3292673,114
1643554729361,4303.3292702,-138
1643554729361,4303.3292749,-586
1643554729361,4303.3292778,-724
1643554729361,4303.3292807,-42
1643554729361,4303.3292836,910
1643554729361,4303.3292882,1044
1643554729361,4303.3292911,550
1643554729382,4303.329294,269
1643554729382,4303.3292969,166
1643554729382,4303.3293019,33
1643554729382,4303.3293049,-4
1643554729382,4303.3293077,11
1643554729382,4303.3293124,-14
1643554729382,4303.3293153,-28
1643554729382,4303.3293183,-19
1643554729382,4303.3293236,-26
1643554729382,4303.3293266,-38
1643554729405,4303.3293295,-33
1643554729405,4303.3293324,-35
1643554729405,4303.3293353,-38
1643554729405,4303.3293382,-28
1643554729405,4303.3293413,-35
1643554729405,4303.3293461,-50
1643554729405,4303.3293489,-45
1643554729405,4303.3293519,-40
1643554729405,4303.3293567,-50
1643554729405,4303.3293596,-54
1643554729428,4303.3293629,-52
1643554729428,4303.3293676,-54
1643554729428,4303.3293705,-64
1643554729428,4303.3293734,-73
1643554729428,4303.3293762,-76
1643554729428,4303.3293792,-76
1643554729428,4303.3293833,-71
1643554729428,4303.3293862,-61
1643554729428,4303.3293894,-59
1643554729428,4303.3293931,-64
1643554729449,4303.3293964,-61
1643554729449,4303.3294013,-52
1643554729449,4303.3294039,-38
1643554729449,4303.3294067,-14
1643554729694,4303.3294097,14
1643554729694,4303.3294124,38
1643554729694,4303.3294152,52
1643554729694,4303.329418,59
1643554729694,4303.3294206,69
1643554729694,4303.3294233,78
1643554729694,4303.3294259,85
1643554729694,4303.3294286,85
1643554729694,4303.3294312,83
1643554729694,4303.3294338,85
1643554729715,4303.3294368,83
1643554729715,4303.3294558,71
1643554729715,4303.3294619,69
1643554729715,4303.3294649,78
1643554729715,4303.3294696,81
1643554729715,4303.3294726,71
1643554729715,4303.3294754,66
1643554729715,4303.3294783,71
1643554729715,4303.329482,66
1643554729715,4303.3294849,57
1643554729737,4303.7340463,61
1643554729737,4303.7340591,66
1643554729737,4303.7340632,66
1643554729737,4303.7340672,66
1643554729737,4303.7340701,69
1643554729737,4303.734073,71
1643554729737,4303.7340758,71
1643554729737,4303.7340787,69
1643554729737,4303.7340926,59
1643554729737,4303.7340976,35
1643554729761,4303.7341005,16
1643554729761,4303.7341033,11
1643554729761,4303.7341061,-4
1643554729761,4303.7341089,-28
1643554729761,4303.7341117,-19
1643554729761,4303.7341143,-7
1643554729761,4303.7341169,-16
1643554729761,4303.7341196,-19
1643554729761,4303.7341222,-4
1643554729761,4303.7341249,11
1643554729781,4303.7341276,26
1643554729781,4303.7341302,30
1643554729781,4303.7341329,26
1643554729781,4303.7341355,30
1643554729781,4303.7341382,40
1643554729781,4303.7341408,40
1643554729781,4303.7341436,42
1643554729781,4303.7341463,50
1643554729781,4303.7341489,40
1643554729781,4303.7341516,33
1643554729804,4303.7341543,45
1643554729804,4303.7341569,64
1643554729804,4303.7341596,107
1643554729804,4303.7341623,69
1643554729804,4303.7341649,-247
1643554729804,4303.7341677,-679
1643554729804,4303.7341703,-605
1643554729804,4303.7341729,224
1643554729804,4303.7341756,972
1643554729804,4303.7341782,875
1643554729828,4303.7341808,441
1643554729828,4303.7341834,245
1643554729828,4303.7341946,121
1643554729828,4303.7342006,7
1643554729828,4303.7342034,0
1643554729828,4303.7342062,14
1643554729828,4303.7342089,-11
1643554729828,4303.7342115,-23
1643554729828,4303.7342142,-16
1643554729828,4303.7342168,-16
1643554729850,4303.7342194,-19
1643554729850,4303.734222,-19
1643554729850,4303.7342248,-23
1643554729850,4303.7342274,-30
1643554730294,4303.73423,-28
1643554730294,4303.7342326,-26
1643554730294,4303.7342353,-30
1643554730294,4303.7342378,-40
1643554730294,4303.7342405,-42
1643554730294,4303.7342435,-54
1643554730294,4303.7342462,-59
1643554730294,4303.7342488,-54
1643554730294,4303.7342514,-59
1643554730294,4303.7342545,-73
1643554730316,4303.7342576,-81
1643554730316,4303.7342603,-81
1643554730316,4303.734263,-83
1643554730316,4303.7342656,-95
1643554730316,4303.7342683,-92
1643554730316,4303.734271,-85
1643554730316,4303.7342741,-92
1643554730316,4303.7342767,-92
1643554730316,4303.7342793,-71
1643554730316,4304.3341086,-33
1643554730338,4304.3341202,-4
1643554730338,4304.334126,14
1643554730338,4304.3341314,38
1643554730338,4304.3341345,54
1643554730338,4304.3341384,59
1643554730338,4304.3341413,66
1643554730338,4304.3341443,54
1643554730338,4304.3341471,26
1643554730338,4304.3341499,30
1643554730338,4304.3341527,54
1643554730361,4304.3341556,61
1643554730361,4304.3341584,45
1643554730361,4304.3341612,19
1643554730361,4304.334164,14
1643554730361,4304.3341669,28
1643554730361,4304.3341697,33
1643554730361,4304.3341725,38
1643554730361,4304.3341753,42
1643554730361,4304.3341782,33
1643554730361,4304.334181,30
1643554730383,4304.3341839,35
1643554730383,4304.3341867,23
1643554730383,4304.3341895,14
1643554730383,4304.3341923,23
1643554730383,4304.3341951,35
1643554730383,4304.334198,38
1643554730383,4304.3342008,47
1643554730383,4304.3342038,50
1643554730383,4304.3342067,40
1643554730383,4304.3342095,42
1643554730405,4304.3342123,47
1643554730405,4304.3342152,38
1643554730405,4304.334218,9
1643554730405,4304.3342208,-9
1643554730405,4304.3342236,-2
1643554730405,4304.3342264,16
1643554730405,4304.3342293,16
1643554730405,4304.3342323,0
1643554730405,4304.3342351,9
1643554730405,4304.334238,45
1643554730427,4304.3342428,52
1643554730427,4304.3342468,40
1643554730427,4304.3342497,54
1643554730427,4304.3342524,69
1643554730427,4304.3342553,54
1643554730427,4304.3342581,57
1643554730427,4304.3342609,76
1643554730427,4304.3342637,66
1643554730427,4304.3342665,52
1643554730427,4304.3342693,50
1643554730449,4304.3342722,52
1643554730449,4304.334275,61
1643554730449,4304.3342779,104
1643554730449,4304.3342806,100
1643554730849,4304.3342835,-154
1643554730849,4304.3342862,-615
1643554730849,4304.3342889,-753
1643554730849,4304.3342916,-88
1643554730849,4304.3342942,810
1643554730849,4304.3342969,951
1643554730849,4304.3342995,560
1643554730849,4304.3343022,331
1643554730849,4304.3343048,205
1643554730849,4304.3343075,42
1643554730871,4304.3343102,-7
1643554730871,4304.3343128,19
1643554730871,4304.3343155,-2
1643554730871,4304.3343181,-21
1643554730871,4304.334321,-9
1643554730871,4304.3343238,-14
1643554730871,4304.3343267,-19
1643554730871,4304.3343296,-4
1643554730871,4304.8847983,-9
1643554730871,4304.8848101,-23
1643554730894,4304.884815,-30
1643554730894,4304.88482,-52
1643554730894,4304.8848228,-61
1643554730894,4304.8848258,-47
1643554730894,4304.8848286,-38
1643554730894,4304.8848315,-54
1643554730894,4304.8848344,-76
1643554730894,4304.8848373,-85
1643554730894,4304.8848402,-88
1643554730894,4304.884843,-104
1643554730915,4304.8848459,-138
1643554730915,4304.8848487,-159
1643554730915,4304.8848516,-162
1643554730915,4304.8848545,-157
1643554730915,4304.8848573,-154
1643554730915,4304.8848602,-162
1643554730915,4304.8848634,-159
1643554730915,4304.8848681,-147
1643554730915,4304.8848708,-138
1643554730915,4304.8848736,-107
1643554730938,4304.8848765,-64
1643554730938,4304.8848795,-21
1643554730938,4304.8848834,28
1643554730938,4304.8848864,50
1643554730938,4304.8848893,52
1643554730938,4304.8848922,69
1643554730938,4304.8848952,76
1643554730938,4304.8849001,83
1643554730938,4304.8849029,90
1643554730938,4304.8849058,81
1643554730960,4304.8849086,71
1643554730960,4304.8849114,73
1643554730960,4304.8849143,83
1643554730960,4304.8849171,83
1643554730960,4304.8849201,66
1643554730960,4304.884924,54
1643554730960,4304.8849268,61
1643554730960,4304.8849298,66
1643554730960,4304.8849337,64
1643554730960,4304.8849366,66
1643554730982,4304.8849414,66
1643554730982,4304.8849443,59
1643554730982,4304.8849472,54
1643554730982,4304.8849501,57
1643554730982,4304.884953,61
1643554730982,4304.8849568,66
1643554730982,4304.8849597,59
1643554730982,4304.8849625,59
1643554730982,4304.8849654,66
1643554730982,4304.8849682,71
1643554731004,4304.8849712,73
1643554731004,4304.884974,64
1643554731004,4304.884977,40
1643554731004,4304.8849798,16
1643554731450,4304.8849827,19
1643554731450,4304.8849855,47
1643554731450,4304.8849882,47
1643554731450,4304.8849909,21
1643554731450,4304.8849937,30
1643554731450,4304.8849963,66
1643554731450,4304.8849989,83
1643554731450,4304.8850016,90
1643554731450,4304.8850042,92
1643554731450,4304.8850068,78
1643554731482,4304.8850095,76
1643554731482,4304.8850121,83
1643554731482,4304.8850148,76
1643554731482,4304.8850175,64
1643554731482,4304.8850202,64
1643554731482,4304.8850232,64
1643554731482,4304.8850261,64
1643554731482,4305.4826256,73
1643554731482,4305.4826369,119
1643554731482,4305.4826415,114
1643554731516,4305.4826463,-140
1643554731516,4305.4826501,-608
1643554731516,4305.4826546,-755
1643554731516,4305.4826572,-85
1643554731516,4305.4826601,851
1643554731516,4305.4826639,1020
1643554731516,4305.4826668,588
1643554731516,4305.4826696,307
1643554731516,4305.4826723,157
1643554731516,4305.4826751,-11
1643554731549,4305.482678,-50
1643554731549,4305.4826808,-14
1643554731549,4305.4826836,-35
1643554731549,4305.4826864,-50
1643554731549,4305.4826892,-40
1643554731549,4305.4826919,-40
1643554731549,4305.4826948,-42
1643554731549,4305.4826976,-42
1643554731549,4305.4827003,-40
1643554731549,4305.4827031,-33
1643554731582,4305.4827059,-38
1643554731582,4305.4827086,-50
1643554731582,4305.4827114,-50
1643554731582,4305.4827141,-47
1643554731582,4305.4827169,-47
1643554731582,4305.4827197,-50
1643554731582,4305.4827224,-57
1643554731582,4305.4827251,-61
1643554731582,4305.482728,-66
1643554731582,4305.4827307,-71
1643554731616,4305.4827335,-76
1643554731616,4305.4827363,-73
1643554731616,4305.4827392,-64
1643554731616,4305.4827419,-66
1643554731616,4305.4827447,-69
1643554731616,4305.4827474,-57
1643554731616,4305.4827501,-50
1643554731616,4305.4827528,-59
1643554731616,4305.4827556,-52
1643554731616,4305.4827583,-28
1643554731649,4305.4827611,-4
1643554731649,4305.4827641,19
1643554731649,4305.4827689,52
1643554731649,4305.4827716,73
1643554731649,4305.4827744,78
1643554731649,4305.4827772,83
1643554731649,4305.48278,90
1643554731649,4305.4827827,90
1643554731649,4305.4827855,83
1643554731649,4305.4827883,92
1643554731682,4305.4827912,102
1643554731682,4305.482794,97
1643554731682,4305.4827967,95
1643554731682,4305.4827995,85
1643554732015,4305.4828022,76
1643554732015,4305.482805,71
1643554732015,4305.4828076,73
1643554732015,4305.4828103,76
1643554732015,4305.4828307,71
1643554732015,4305.4828461,69
1643554732015,4305.4828519,66
1643554732015,4305.4828758,66
1643554732015,4305.4828822,69
1643554732015,4305.4828855,59
1643554732038,4305.4828904,54
1643554732038,4305.4828931,61
1643554732038,4305.482896,64
1643554732038,4305.4828988,61
1643554732038,4305.4829028,64
1643554732038,4305.4829057,69
1643554732038,4306.0340375,76
1643554732038,4306.0340494,76
1643554732038,4306.0340537,59
1643554732038,4306.0340583,30
1643554732061,4306.0340609,9
1643554732061,4306.0340638,14
1643554732061,4306.0340666,28
1643554732061,4306.0340694,33
1643554732061,4306.0340722,28
1643554732061,4306.034075,28
1643554732061,4306.0340777,42
1643554732061,4306.0340805,61
1643554732061,4306.0340832,69
1643554732061,4306.0340859,71
1643554732082,4306.0340889,76
1643554732082,4306.0340916,69
1643554732082,4306.0340943,52
1643554732082,4306.0340971,42
1643554732082,4306.0340999,42
1643554732082,4306.0341174,40
1643554732082,4306.0341219,40
1643554732082,4306.0341246,50
1643554732082,4306.0341274,61
1643554732082,4306.0341302,107
1643554732105,4306.034133,116
1643554732105,4306.034136,-107
1643554732105,4306.0341409,-562
1643554732105,4306.0341445,-755
1643554732105,4306.0341474,-140
1643554732105,4306.0341503,815
1643554732105,4306.0341531,1020
1643554732105,4306.034156,560
1643554732105,4306.0341599,262
1643554732105,4306.0341627,162
1643554732127,4306.0341655,40
1643554732127,4306.0341683,0
1643554732127,4306.0341711,11
1643554732127,4306.0341739,-14
1643554732127,4306.0341766,-28
1643554732127,4306.0341795,-9
1643554732127,4306.0341823,-9
1643554732127,4306.0341861,-23
1643554732127,4306.0341889,-26
1643554732127,4306.0341917,-16
1643554732150,4306.0341944,-23
1643554732150,4306.0341972,-26
1643554732150,4306.0342,-16
1643554732150,4306.0342028,-28
1643554732150,4306.0342066,-47
1643554732150,4306.0342094,-38
1643554732150,4306.0342122,-30
1643554732150,4306.034215,-57
1643554732150,4306.0342178,-71
1643554732150,4306.0342205,-59
1643554732171,4306.0342234,-69
1643554732171,4306.0342262,-90
1643554732171,4306.034229,-95
1643554732171,4306.0342318,-88
1643554732505,4306.0342346,-81
1643554732505,4306.0342374,-71
1643554732505,4306.0342399,-83
1643554732505,4306.0342426,-90
1643554732505,4306.0342452,-64
1643554732505,4306.0342478,-47
1643554732505,4306.0342505,-50
1643554732505,4306.034253,-30
1643554732505,4306.0342556,0
1643554732505,4306.0342586,16
1643554732527,4306.0342612,14
1643554732527,4306.0342641,35
1643554732527,4306.0342668,78
1643554732527,4306.0342694,85
1643554732527,4306.034272,71
1643554732527,4306.5342999,73
1643554732527,4306.5343136,76
1643554732527,4306.5343189,57
1643554732527,4306.5343237,52
1643554732527,4306.5343268,76
1643554732548,4306.5343296,92
1643554732548,4306.5343325,78
1643554732548,4306.5343354,59
1643554732548,4306.5343515,59
1643554732548,4306.5343668,61
1643554732548,4306.5343733,59
1643554732548,4306.5343765,54
1643554732548,4306.5343793,52
1643554732548,4306.5343832,57
1643554732548,4306.5343867,38
1643554732571,4306.5343896,7
1643554732571,4306.5343923,11
1643554732571,4306.534395,28
1643554732571,4306.5343976,23
1643554732571,4306.5344009,28
1643554732571,4306.5344602,30
1643554732571,4306.5345041,11
1643554732571,4306.5345354,4
1643554732571,4306.5345497,21
1643554732571,4306.5345538,33
1643554732593,4306.5345581,19
1643554732593,4306.5345613,-4
1643554732593,4306.5345643,-16
1643554732593,4306.5345689,-4
1643554732593,4306.5345718,9
1643554732593,4306.5345747,11
1643554732593,4306.5345775,21
1643554732593,4306.5345802,47
1643554732593,4306.534583,54
1643554732593,4306.5345857,35
1643554732616,4306.5345885,45
1643554732616,4306.5345913,76
1643554732616,4306.5345941,78
1643554732616,4306.5345969,57
1643554732616,4306.5345998,47
1643554732616,4306.5346026,59
1643554732616,4306.5346054,61
1643554732616,4306.5346082,54
1643554732616,4306.534611,73
1643554732616,4306.5346137,97
1643554732637,4306.5346166,107
1643554732637,4306.5346197,61
1643554732637,4306.5346225,-224
1643554732637,4306.5346254,-710
1643554732637,4306.5346282,-784
1643554732637,4306.534631,7
1643554732637,4306.5346339,918
1643554732637,4306.5346367,944
1643554732637,4306.5346396,491
1643554732637,4306.5346424,298
1643554732660,4306.5346452,178
1643554732660,4306.5346481,16
1643554732660,4306.534651,0
1643554732660,4306.5346539,30
1643554733105,4306.5346568,-11
1643554733105,4306.5346596,-30
1643554733105,4306.5346624,-9
1643554733105,4306.5346652,-7
1643554733105,4306.534668,-11
1643554733105,4306.5346712,-11
1643554733105,4306.5346741,-19
1643554733105,4306.5346769,-28
1643554733105,4306.5346798,-21
1643554733105,4306.5346827,-16
1643554733128,4306.5346856,-26
1643554733128,4306.5346884,-28
1643554733128,4306.5346912,-28
1643554733128,4306.5346941,-42
1643554733128,4307.1339877,-59
1643554733128,4307.1339994,-64
1643554733128,4307.1340039,-64
1643554733128,4307.1340088,-69
1643554733128,4307.1340132,-78
1643554733128,4307.134018,-73
1643554733149,4307.1340226,-88
1643554733149,4307.1340265,-140
1643554733149,4307.1340293,-150
1643554733149,4307.1340322,-114
1643554733149,4307.1340351,-102
1643554733149,4307.1340379,-109
1643554733149,4307.1340413,-92
1643554733149,4307.1340461,-66
1643554733149,4307.1340496,-40
1643554733149,4307.1340533,-7
1643554733172,4307.1340562,28
1643554733172,4307.1340611,50
1643554733172,4307.1340639,59
1643554733172,4307.1340667,69
1643554733172,4307.1340695,71
1643554733172,4307.1340723,69
1643554733172,4307.1340751,73
1643554733172,4307.134078,76
1643554733172,4307.1340808,73
1643554733172,4307.1340836,76
1643554733194,4307.1340864,78
1643554733194,4307.1340893,69
1643554733194,4307.1340921,57
1643554733194,4307.1340949,59
1643554733194,4307.1340977,54
1643554733194,4307.1341006,45
1643554733194,4307.1341033,45
1643554733194,4307.1341062,45
1643554733194,4307.1341089,42
1643554733194,4307.1341118,50
1643554733216,4307.1341146,52
1643554733216,4307.1341174,42
1643554733216,4307.1341203,38
1643554733216,4307.1341231,33
1643554733216,4307.1341259,30
1643554733216,4307.1341287,30
1643554733216,4307.1341316,33
1643554733216,4307.1341344,38
1643554733216,4307.1341372,42
1643554733216,4307.1341401,42
1643554733239,4307.1341428,42
1643554733239,4307.1341456,30
1643554733239,4307.1341485,2
1643554733239,4307.1341513,-11
1643554733239,4307.1341541,2
1643554733239,4307.134157,19
1643554733239,4307.1341598,14
1643554733239,4307.1341625,2
1643554733239,4307.1341653,19
1643554733239,4307.1341681,61
1643554733261,4307.1341708,81
1643554733261,4307.1341738,64
1643554733261,4307.1341767,54
1643554733261,4307.1341795,61
1643554733750,4307.1341823,69
1643554733750,4307.134185,69
1643554733750,4307.1341876,73
1643554733750,4307.1341902,73
1643554733750,4307.1341929,57
1643554733750,4307.1341955,57
1643554733750,4307.1341981,69
1643554733750,4307.1342007,81
1643554733750,4307.1342033,114
1643554733750,4307.1342059,100
1643554733772,4307.1342217,-176
1643554733772,4307.1342254,-658
1643554733772,4307.1342282,-767
1643554733772,4307.7783663,-11
1643554733772,4307.7783779,960
1643554733772,4307.7783812,1049
1643554733772,4307.7783845,543
1643554733772,4307.7783873,278
1643554733772,4307.7783901,169
1643554733772,4307.7783929,23
1643554733794,4307.7783963,-4
1643554733794,4307.7783991,21
1643554733794,4307.7784018,-7
1643554733794,4307.7784045,-26
1643554733794,4307.7784073,-35
1643554733794,4307.7784104,-61
1643554733794,4307.7784132,-61
1643554733794,4307.7784159,-47
1643554733794,4307.7784186,-54
1643554733794,4307.7784214,-59
1643554733817,4307.7784242,-52
1643554733817,4307.7784272,-57
1643554733817,4307.7784301,-61
1643554733817,4307.778434,-54
1643554733817,4307.7784389,-54
1643554733817,4307.7784419,-61
1643554733817,4307.7784466,-71
1643554733817,4307.7784495,-73
1643554733817,4307.7784525,-73
1643554733817,4307.778458,-81
1643554733838,4307.7784616,-88
1643554733838,4307.7784668,-81
1643554733838,4307.7784698,-69
1643554733838,4307.7784744,-61
1643554733838,4307.7784772,-52
1643554733838,4307.7784803,-47
1643554733838,4307.7784855,-52
1643554733838,4307.7784893,-54
1643554733838,4307.7784931,-42
1643554733838,4307.778496,-28
1643554733861,4307.7785007,-19
1643554733861,4307.7785049,0
1643554733861,4307.7785095,23
1643554733861,4307.7785143,38
1643554733861,4307.7785193,52
1643554733861,4307.7785221,64
1643554733861,4307.778525,66
1643554733861,4307.778528,64
1643554733861,4307.7785319,64
1643554733861,4307.7785356,66
1643554733883,4307.7785402,69
1643554733883,4307.7785435,59
1643554733883,4307.7785465,57
1643554733883,4307.7785512,61
1643554733883,4307.7785557,61
1643554733883,4307.7785602,57
1643554733883,4307.7785648,57
1643554733883,4307.7785694,52
1643554733883,4307.7785737,45
1643554733883,4307.7785784,45
1643554733905,4307.7785814,47
1643554733905,4307.7785845,47
1643554733905,4307.7785892,50
1643554733905,4307.7785922,47
1643554734194,4307.7785952,42
1643554734194,4307.7785982,50
1643554734194,4307.778601,52
1643554734194,4307.7786038,42
1643554734194,4307.7786066,50
1643554734194,4307.7786094,59
1643554734194,4307.7786121,59
1643554734194,4307.7786149,69
1643554734194,4307.7786176,69
1643554734194,4307.7786204,47
1643554734216,4307.7786231,21
1643554734216,4307.7786258,4
1643554734216,4308.2346975,9
1643554734216,4308.2347097,28
1643554734216,4308.234713,35
1643554734216,4308.2347168,14
1643554734216,4308.2347207,7
1643554734216,4308.2347236,50
1643554734216,4308.2347265,78
1643554734216,4308.2347295,66
1643554734238,4308.2347332,69
1643554734238,4308.2347363,64
1643554734238,4308.2347414,38
1643554734238,4308.2347461,30
1643554734238,4308.2347508,45
1643554734238,4308.2347537,42
1643554734238,4308.2347566,30
1643554734238,4308.2347606,30
1643554734238,4308.2347635,30
1643554734238,4308.2347662,30
1643554734260,4308.234769,71
1643554734260,4308.234772,100
1643554734260,4308.2347763,-88
1643554734260,4308.2347797,-541
1643554734260,4308.2347838,-827
1643554734260,4308.2347868,-300
1643554734260,4308.2347907,767
1643554734260,4308.2347938,1144
1643554734260,4308.2347985,648
1643554734260,4308.2348018,252
1643554734282,4308.2348048,145
1643554734282,4308.2348095,14
1643554734282,4308.2348124,-45
1643554734282,4308.2348159,-11
1643554734282,4308.2348205,-28
1643554734282,4308.2348243,-52
1643554734282,4308.2348273,-35
1643554734282,4308.234832,-30
1643554734282,4308.2348354,-38
1643554734282,4308.2348384,-33
1643554734305,4308.2348423,-30
1643554734305,4308.2348453,-28
1643554734305,4308.2348503,-21
1643554734305,4308.2348534,-21
1643554734305,4308.2348585,-30
1643554734305,4308.2348615,-38
1643554734305,4308.2348662,-35
1643554734305,4308.2348694,-35
1643554734305,4308.2348744,-42
1643554734305,4308.2348773,-42
1643554734328,4308.2348801,-40
1643554734328,4308.2348831,-47
1643554734328,4308.234886,-50
1643554734328,4308.2348894,-42
1643554734328,4308.2348925,-38
1643554734328,4308.2348963,-30
1643554734328,4308.2348992,-16
1643554734328,4308.2349041,-9
1643554734328,4308.2349069,-9
1643554734328,4308.2349099,-9
1643554734350,4308.2349148,-7
1643554734350,4308.2349177,4
1643554734350,4308.2349207,19
1643554734350,4308.2349237,28
1643554734794,4308.2349278,40
1643554734794,4308.2349309,54
1643554734794,4308.2349338,59
1643554734794,4308.2349368,69
1643554734794,4308.2349398,76
1643554734794,4308.2349425,81
1643554734794,4308.2349457,83
1643554734794,4308.2349485,78
1643554734794,4308.2349515,81
1643554734794,4308.2349544,81
1643554734817,4308.2349571,76
1643554734817,4308.8328621,76
1643554734817,4308.8328747,81
1643554734817,4308.8328781,81
1643554734817,4308.832882,78
1643554734817,4308.8328868,71
1643554734817,4308.8328895,69
1643554734817,4308.8328924,69
1643554734817,4308.8328953,54
1643554734817,4308.8328981,30
1643554734838,4308.832901,16
1643554734838,4308.8329039,21
1643554734838,4308.8329068,23
1643554734838,4308.8329096,28
1643554734838,4308.8329125,33
1643554734838,4308.8329154,23
1643554734838,4308.8329184,23
1643554734838,4308.8329213,38
1643554734838,4308.8329243,38
1643554734838,4308.8329291,23
1643554734861,4308.832932,30
1643554734861,4308.8329348,47
1643554734861,4308.8329376,30
1643554734861,4308.8329405,9
1643554734861,4308.8329435,0
1643554734861,4308.8329484,-16
1643554734861,4308.8329526,-14
1643554734861,4308.8329573,11
1643554734861,4308.8329599,16
1643554734861,4308.8329628,2
1643554734883,4308.8329655,9
1643554734883,4308.8329683,40
1643554734883,4308.8329711,57
1643554734883,4308.8329739,59
1643554734883,4308.8329767,66
1643554734883,4308.8329796,71
1643554734883,4308.8329824,69
1643554734883,4308.8329851,66
1643554734883,4308.8329881,61
1643554734883,4308.8329926,64
1643554734905,4308.8329953,73
1643554734905,4308.8329981,73
1643554734905,4308.833001,66
1643554734905,4308.8330038,71
1643554734905,4308.8330067,112
1643554734905,4308.8330095,112
1643554734905,4308.8330125,-131
1643554734905,4308.8330153,-574
1643554734905,4308.8330182,-696
1643554734905,4308.8330211,-11
1643554734927,4308.8330258,903
1643554734927,4308.8330295,1015
1643554734927,4308.8330324,557
1643554734927,4308.8330361,295
1643554734927,4308.833039,174
1643554734927,4308.8330418,28
1643554734927,4308.8330447,2
1643554734927,4308.8330475,30
1643554734927,4308.8330522,4
1643554734927,4308.833055,-9
1643554734950,4308.8330578,2
1643554734950,4308.8330607,-4
1643554734950,4308.8330635,-11
1643554734950,4308.8330664,-2
1643554735338,4308.8330692,-4
1643554735338,4308.833072,-9
1643554735338,4308.8330746,-7
1643554735338,4308.8330773,-9
1643554735338,4308.8330799,-16
1643554735338,4308.8330826,-19
1643554735338,4308.8330851,-26
1643554735338,4308.8330877,-26
1643554735338,4308.8330904,-26
1643554735338,4308.833093,-33
1643554735373,4309.3791088,-52
1643554735373,4309.3791207,-73
1643554735373,4309.3791252,-81
1643554735373,4309.3791299,-76
1643554735373,4309.3791326,-78
1643554735373,4309.3791354,-81
1643554735373,4309.3791381,-85
1643554735373,4309.3791409,-95
1643554735373,4309.3791436,-92
1643554735373,4309.3791464,-78
1643554735405,4309.3791492,-81
1643554735405,4309.3791519,-81
1643554735405,4309.3791547,-47
1643554735405,4309.3791575,-23
1643554735405,4309.3791602,-33
1643554735405,4309.379163,-16
1643554735405,4309.3791659,16
1643554735405,4309.3791686,33
1643554735405,4309.3791713,40
1643554735405,4309.3791741,33
1643554735439,4309.3791768,30
1643554735439,4309.3791796,38
1643554735439,4309.3791823,33
1643554735439,4309.379185,26
1643554735439,4309.3791878,35
1643554735439,4309.3791904,42
1643554735439,4309.3791931,35
1643554735439,4309.3791959,28
1643554735439,4309.3791986,38
1643554735439,4309.3792013,45
1643554735472,4309.3792041,30
1643554735472,4309.3792068,9
1643554735472,4309.3792095,14
1643554735472,4309.3792124,38
1643554735472,4309.3792151,35
1643554735472,4309.3792179,28
1643554735472,4309.3792205,42
1643554735472,4309.3792233,52
1643554735472,4309.379226,45
1643554735472,4309.3792287,40
1643554735505,4309.3792315,38
1643554735505,4309.3792343,35
1643554735505,4309.379237,28
1643554735505,4309.3792398,35
1643554735505,4309.3792426,57
