unixTime,lslTime,ECG
1643384405499,20754.7342554,-7
1643384405499,20754.7342587,52
1643384405499,20754.7343179,54
1643384405499,20755.2314146,47
1643384405499,20755.2314263,68
1643384405499,20755.2314364,80
1643384405499,20755.2314405,85
1643384405499,20755.2314436,101
1643384405499,20755.2314467,120
1643384405499,20755.2314497,134
1643384405534,20755.2314527,149
1643384405534,20755.2314556,170
1643384405534,20755.2314586,198
1643384405534,20755.2314616,229
1643384405829,20755.2314649,260
1643384405829,20755.2314683,298
1643384405829,20755.2314713,333
1643384405829,20755.2314743,367
1643384405829,20755.2314773,402
1643384405829,20755.2314803,421
1643384405829,20755.2314833,423
1643384405829,20755.2314863,419
1643384405829,20755.2314894,402
1643384405829,20755.2314923,374
1643384405857,20755.2314953,329
1643384405857,20755.2314983,251
1643384405857,20755.2315012,153
1643384405857,20755.2315046,61
1643384405857,20755.2315076,-16
1643384405857,20755.2315106,-82
1643384405857,20755.2315135,-134
1643384405857,20755.2315165,-179
1643384405857,20755.2315196,-222
1643384405857,20755.2315225,-251
1643384405889,20755.2315255,-246
1643384405889,20755.2315285,-236
1643384405889,20755.2315314,-236
1643384405889,20755.2315344,-229
1643384405889,20755.2315373,-213
1643384405889,20755.2315404,-203
1643384405889,20755.2315434,-191
1643384405889,20755.2315464,-179
1643384405889,20755.2315493,-168
1643384405889,20755.2315523,-149
1643384405918,20755.2315553,-130
1643384405918,20755.2315582,-120
1643384405918,20755.2315612,-111
1643384405918,20755.2315642,-97
1643384405918,20755.2315672,-87
1643384405918,20755.2315701,-82
1643384405918,20755.2315732,-78
1643384405918,20755.2315762,-78
1643384405918,20755.2315792,-75
1643384405918,20755.2315822,-66
1643384405947,20755.2315861,-63
1643384405947,20755.2315896,-66
1643384405947,20755.2315926,-63
1643384405947,20755.2315956,-61
1643384405947,20755.2315985,-68
1643384405947,20755.2316016,-68
1643384405947,20755.2316045,-68
1643384405947,20755.2316075,-68
1643384405947,20755.2316105,-71
1643384405947,20755.2316135,-73
1643384405982,20755.2316164,-71
1643384405982,20755.2316195,-63
1643384405982,20755.2316224,-59
1643384405982,20755.2316254,-61
1643384405982,20755.2316284,-59
1643384405982,20755.2316314,-54
1643384405982,20755.2316343,-52
1643384405982,20755.2316373,-52
1643384405982,20755.2316402,-47
1643384405982,20755.2316433,-37
1643384406012,20755.2316462,-37
1643384406012,20755.2316492,-35
1643384406012,20755.779788,-30
1643384406012,20755.779801,-28
1643384406012,20755.7798048,-33
1643384406012,20755.7798098,-33
1643384406012,20755.779814,-28
1643384406012,20755.779817,-23
1643384406012,20755.77982,-14
1643384406012,20755.779823,-9
1643384406043,20755.7798259,-18
1643384406043,20755.7798289,-26
1643384406043,20755.7798318,-26
1643384406043,20755.7798348,-26
1643384406386,20755.7798378,-21
1643384406386,20755.7798407,-11
1643384406386,20755.779844,-21
1643384406386,20755.7798469,-44
1643384406386,20755.7798498,-40
1643384406386,20755.7798528,-18
1643384406386,20755.7798557,-23
1643384406386,20755.7798591,-33
1643384406386,20755.7798621,-28
1643384406386,20755.779865,-37
1643384406425,20755.7798679,-49
1643384406425,20755.7798709,-40
1643384406425,20755.7798739,-30
1643384406425,20755.7798769,-30
1643384406425,20755.7798798,-28
1643384406425,20755.7798828,-28
1643384406425,20755.7798861,-23
1643384406425,20755.779889,-11
1643384406425,20755.7798919,-11
1643384406425,20755.7798948,-11
1643384406467,20755.7798977,-9
1643384406467,20755.7799007,-11
1643384406467,20755.7799036,-14
1643384406467,20755.7799065,-4
1643384406467,20755.7799097,2
1643384406467,20755.7799126,-4
1643384406467,20755.7799157,-9
1643384406467,20755.7799187,-4
1643384406467,20755.7799217,0
1643384406467,20755.7799247,18
1643384406508,20755.7799277,52
1643384406508,20755.7799306,73
1643384406508,20755.779934,66
1643384406508,20755.7799369,56
1643384406508,20755.7799399,47
1643384406508,20755.7799428,28
1643384406508,20755.7799457,21
1643384406508,20755.7799494,18
1643384406508,20755.7799523,9
1643384406508,20755.7799563,9
1643384406550,20755.7799593,4
1643384406550,20755.7799623,-7
1643384406550,20755.7799652,94
1643384406550,20755.7799681,466
1643384406550,20755.7799711,1037
1643384406550,20755.7799745,1532
1643384406550,20755.7799782,1404
1643384406550,20755.7799821,137
1643384406550,20755.779985,-1160
1643384406550,20755.7799879,-989
1643384406595,20755.7799909,-262
1643384406595,20755.7799938,-137
1643384406595,20755.7799969,-104
1643384406595,20755.7799998,54
1643384406595,20755.780003,42
1643384406595,20755.780006,2
1643384406595,20755.7800091,49
1643384406595,20755.7800121,68
1643384406595,20755.780015,61
1643384406595,20755.780018,82
1643384406638,20755.7800209,104
1643384406638,20756.3324687,106
1643384406638,20756.3324805,106
1643384406638,20756.3324842,120
1643384406638,20756.3324874,142
1643384406638,20756.3324904,163
1643384406638,20756.3324935,187
1643384406638,20756.3324965,217
1643384406638,20756.3324994,251
1643384406638,20756.3325024,286
1643384406682,20756.3325053,324
1643384406682,20756.3325083,359
1643384406682,20756.3325113,397
1643384406682,20756.3325148,435
1643384406907,20756.3325179,449
1643384406907,20756.3325208,447
1643384406907,20756.3325238,449
1643384406907,20756.3325267,440
1643384406907,20756.3325296,402
1643384406907,20756.3325326,343
1643384406907,20756.3325355,260
1643384406907,20756.3325385,151
1643384406907,20756.3325414,49
1643384406907,20756.3325446,-37
1643384406953,20756.3325479,-108
1643384406953,20756.3325508,-161
1643384406953,20756.3325537,-201
1643384406953,20756.3325567,-229
1643384406953,20756.3325596,-239
1643384406953,20756.3325626,-239
1643384406953,20756.3325656,-236
1643384406953,20756.3325685,-229
1643384406953,20756.3325714,-224
1643384406953,20756.3325743,-215
1643384406996,20756.3325772,-203
1643384406996,20756.3325803,-189
1643384406996,20756.3325832,-172
1643384406996,20756.3325861,-153
1643384406996,20756.3325891,-139
1643384406996,20756.332592,-130
1643384406996,20756.332595,-120
1643384406996,20756.3325979,-111
1643384406996,20756.3326019,-106
1643384406996,20756.3326052,-99
1643384407041,20756.3326081,-87
1643384407041,20756.332611,-82
1643384407041,20756.332614,-82
1643384407041,20756.332617,-78
1643384407041,20756.3326199,-78
1643384407041,20756.3326228,-78
1643384407041,20756.3326257,-78
1643384407041,20756.3326286,-75
1643384407041,20756.3326315,-78
1643384407041,20756.3326344,-80
1643384407087,20756.3326374,-78
1643384407087,20756.3326403,-75
1643384407087,20756.3326432,-73
1643384407087,20756.3326618,-73
1643384407087,20756.3326647,-68
1643384407087,20756.3326677,-66
1643384407087,20756.3326706,-63
1643384407087,20756.3326736,-61
1643384407087,20756.3326767,-56
1643384407087,20756.3326797,-54
1643384407132,20756.3326827,-47
1643384407132,20756.3326858,-44
1643384407132,20756.3326888,-47
1643384407132,20756.3326918,-52
1643384407132,20756.3326948,-54
1643384407132,20756.3326978,-54
1643384407132,20756.3327009,-49
1643384407132,20756.332704,-44
1643384407132,20756.332707,-42
1643384407132,20756.33271,-42
1643384407178,20756.8340148,-42
1643384407178,20756.834029,-42
1643384407178,20756.8340333,-37
1643384407178,20756.8340386,-33
1643384407178,20756.8340416,-30
1643384407178,20756.8340473,-28
1643384407178,20756.8340503,-28
1643384407178,20756.8340554,-28
1643384407178,20756.8340584,-23
1643384407178,20756.834063,-18
1643384407223,20756.8340659,-16
1643384407223,20756.8340705,-23
1643384407223,20756.8340735,-37
1643384407223,20756.834078,-40
1643384407509,20756.8340818,-26
1643384407509,20756.8340847,-23
1643384407509,20756.8340875,-28
1643384407509,20756.8340902,-28
1643384407509,20756.834093,-47
1643384407509,20756.8340958,-66
1643384407509,20756.8340986,-54
1643384407509,20756.8341013,-35
1643384407509,20756.8341041,-18
1643384407509,20756.8341068,16
1643384407547,20756.8341101,37
1643384407547,20756.8341136,28
1643384407547,20756.8341163,23
1643384407547,20756.834119,23
1643384407547,20756.8341217,4
1643384407547,20756.8341244,-4
1643384407547,20756.8341272,-2
1643384407547,20756.83413,-9
1643384407547,20756.8341327,-14
1643384407547,20756.8341353,-23
1643384407588,20756.8341381,-33
1643384407588,20756.8341408,75
1643384407588,20756.8341436,454
1643384407588,20756.8341463,1018
1643384407588,20756.834149,1484
1643384407588,20756.8341517,1323
1643384407588,20756.8341545,52
1643384407588,20756.8341573,-1207
1643384407588,20756.8341601,-985
1643384407588,20756.834163,-210
1643384407628,20756.8341659,-85
1643384407628,20756.8341691,-108
1643384407628,20756.8341742,30
1643384407628,20756.8341774,40
1643384407628,20756.8341803,0
1643384407628,20756.8341851,47
1643384407628,20756.834188,68
1643384407628,20756.8341915,59
1643384407628,20756.8341961,75
1643384407628,20756.8341988,94
1643384407667,20756.8342018,97
1643384407667,20756.8342065,111
1643384407667,20756.8342114,130
1643384407667,20756.8342169,144
1643384407667,20756.8342198,165
1643384407667,20756.8342227,191
1643384407667,20756.8342257,210
1643384407667,20756.8342297,234
1643384407667,20756.8342326,272
1643384407667,20756.8342369,312
1643384407706,20756.8342399,355
1643384407706,20756.8342445,395
1643384407706,20756.8342492,433
1643384407706,20756.8342538,464
1643384407706,20756.8342566,483
1643384407706,20756.8342595,487
1643384407706,20756.8342643,473
1643384407706,20756.8342673,438
1643384407706,20756.8342719,378
1643384407706,20757.4340203,293
1643384407746,20757.4340316,194
1643384407746,20757.4340352,92
1643384407746,20757.4340382,2
1643384407746,20757.4340411,-68
1643384407746,20757.434044,-123
1643384407746,20757.4340473,-163
1643384407746,20757.43405,-184
1643384407746,20757.4340528,-191
1643384407746,20757.4340557,-203
1643384407746,20757.4340585,-232
1643384407787,20757.4340614,-248
1643384407787,20757.4340642,-236
1643384407787,20757.4340669,-222
1643384407787,20757.4340697,-213
1643384408039,20757.4340727,-198
1643384408039,20757.4340755,-184
1643384408039,20757.4340783,-175
1643384408039,20757.4340811,-163
1643384408039,20757.4340839,-149
1643384408039,20757.4340866,-132
1643384408039,20757.4340895,-118
1643384408039,20757.4340923,-106
1643384408039,20757.4340951,-101
1643384408039,20757.4340979,-97
1643384408078,20757.4341007,-85
1643384408078,20757.4341035,-82
1643384408078,20757.4341063,-82
1643384408078,20757.4341091,-75
1643384408078,20757.434112,-71
1643384408078,20757.4341282,-78
1643384408078,20757.434132,-73
1643384408078,20757.4341349,-66
1643384408078,20757.4341376,-71
1643384408078,20757.4341404,-68
1643384408120,20757.4341432,-61
1643384408120,20757.434146,-61
1643384408120,20757.4341488,-61
1643384408120,20757.4341516,-54
1643384408120,20757.4341544,-49
1643384408120,20757.4341572,-52
1643384408120,20757.43416,-54
1643384408120,20757.4341627,-49
1643384408120,20757.4341654,-42
1643384408120,20757.4341683,-40
1643384408164,20757.4341711,-37
1643384408164,20757.4341787,-35
1643384408164,20757.4341815,-35
1643384408164,20757.4341843,-33
1643384408164,20757.434187,-30
1643384408164,20757.4341916,-26
1643384408164,20757.4341946,-21
1643384408164,20757.4341976,-21
1643384408164,20757.4342006,-30
1643384408164,20757.4342037,-33
1643384408206,20757.4342067,-26
1643384408206,20757.4342109,-30
1643384408206,20757.4342139,-28
1643384408206,20757.4342169,-16
1643384408206,20757.4342198,-16
1643384408206,20757.4342232,-16
1643384408206,20757.434227,-9
1643384408206,20757.4342299,-9
1643384408206,20757.4342326,-11
1643384408206,20757.4342354,-7
1643384408254,20757.4342384,-2
1643384408254,20757.4342414,-2
1643384408254,20757.4342443,-7
1643384408254,20757.4342472,0
1643384408254,20757.43425,9
1643384408254,20757.4342528,11
1643384408254,20757.4342555,4
1643384408254,20757.4342583,0
1643384408254,20757.9850977,7
1643384408254,20757.9851096,14
1643384408291,20757.9851131,18
1643384408291,20757.985116,16
1643384408291,20757.9851203,11
1643384408291,20757.9851232,9
1643384408291,20757.985126,16
1643384408291,20757.9851287,21
1643384408291,20757.9851315,21
1643384408291,20757.9851343,14
1643384408291,20757.9851371,4
1643384408291,20757.9851399,4
1643384408329,20757.9851427,11
1643384408329,20757.9851455,23
1643384408329,20757.9851483,37
1643384408329,20757.9851512,42
1643384408531,20757.985154,30
1643384408531,20757.9851578,26
1643384408531,20757.9851608,28
1643384408531,20757.9851637,16
1643384408531,20757.9851664,4
1643384408531,20757.9851693,-2
1643384408531,20757.9851721,-9
1643384408531,20757.9851748,-4
1643384408531,20757.9851776,-4
1643384408531,20757.9851804,-26
1643384408572,20757.9851832,-16
1643384408572,20757.985186,179
1643384408572,20757.9851888,660
1643384408572,20757.9851916,1278
1643384408572,20757.9851943,1681
1643384408572,20757.9851971,1167
1643384408572,20757.9852,-378
1643384408572,20757.9852028,-1283
1643384408572,20757.9852055,-693
1643384408572,20757.9852083,-123
1643384408613,20757.9852111,-153
1643384408613,20757.9852139,-78
1643384408613,20757.9852167,37
1643384408613,20757.9852194,-4
1643384408613,20757.9852223,0
1643384408613,20757.9852251,54
1643384408613,20757.9852279,52
1643384408613,20757.9852306,49
1643384408613,20757.9852334,73
1643384408613,20757.9852362,75
1643384408655,20757.9852395,71
1643384408655,20757.9852422,87
1643384408655,20757.985245,104
1643384408655,20757.9852477,120
1643384408655,20757.9852505,151
1643384408655,20757.9852532,184
1643384408655,20757.985256,210
1643384408655,20757.9852587,243
1643384408655,20757.9852615,284
1643384408655,20757.9852643,326
1643384408697,20757.9852672,374
1643384408697,20757.98527,416
1643384408697,20757.9852727,449
1643384408697,20757.9852755,473
1643384408697,20757.9852783,487
1643384408697,20757.9852811,487
1643384408697,20757.9852839,471
1643384408697,20757.9852868,438
1643384408697,20757.9852896,378
1643384408697,20757.9852923,286
1643384408739,20757.9852952,179
1643384408739,20757.9852981,73
1643384408739,20757.9853012,-11
1643384408739,20757.9853096,-75
1643384408739,20757.985316,-125
1643384408739,20757.9853191,-163
1643384408739,20757.985322,-182
1643384408739,20758.4842926,-189
1643384408739,20758.4843044,-194
1643384408739,20758.4843078,-194
1643384408780,20758.4843108,-191
1643384408780,20758.4843135,-196
1643384408780,20758.4843163,-196
1643384408780,20758.484319,-184
1643384408780,20758.4843219,-170
1643384408780,20758.4843246,-165
1643384408780,20758.4843275,-161
1643384408780,20758.4843302,-144
1643384408780,20758.4843336,-127
1643384408780,20758.4843364,-111
1643384408822,20758.4843391,-113
1643384408822,20758.4843418,-134
1643384408822,20758.4843445,-142
1643384408822,20758.4843472,-120
1643384409249,20758.4843499,-111
1643384409249,20758.4843527,-118
1643384409249,20758.4843555,-111
1643384409249,20758.4843582,-101
1643384409249,20758.4843609,-99
1643384409249,20758.4843636,-97
1643384409249,20758.4843663,-97
1643384409249,20758.4843691,-104
1643384409249,20758.4843718,-101
1643384409249,20758.4843746,-87
1643384409295,20758.4843773,-85
1643384409295,20758.4843801,-89
1643384409295,20758.4843828,-92
1643384409295,20758.4843855,-85
1643384409295,20758.4843882,-82
1643384409295,20758.4843911,-80
1643384409295,20758.4843938,-75
1643384409295,20758.4843965,-68
1643384409295,20758.4843992,-59
1643384409295,20758.484402,-56
1643384409327,20758.4844049,-63
1643384409327,20758.4844077,-73
1643384409327,20758.4844104,-78
1643384409327,20758.4844132,-75
1643384409327,20758.484416,-71
1643384409327,20758.4844188,-68
1643384409327,20758.4844215,-61
1643384409327,20758.4844244,-52
1643384409327,20758.4844272,-49
1643384409327,20758.48443,-52
1643384409365,20758.4844327,-52
1643384409365,20758.4844355,-52
1643384409365,20758.4844382,-47
1643384409365,20758.4844409,-37
1643384409365,20758.4844437,-35
1643384409365,20758.4844465,-35
1643384409365,20758.4844493,-30
1643384409365,20758.4844521,-28
1643384409365,20758.4844548,-28
1643384409365,20758.4844575,-23
1643384409400,20758.4844604,-21
1643384409400,20758.4844633,-28
1643384409400,20758.484466,-26
1643384409400,20758.484469,-16
1643384409400,20758.4844717,-11
1643384409400,20758.4844753,-14
1643384409400,20758.4844781,-9
1643384409400,20758.4844808,-2
1643384409400,20758.4844836,-4
1643384409400,20758.4844868,-11
1643384409440,20758.4844896,-2
1643384409440,20758.4844925,4
1643384409440,20758.4844952,-11
1643384409440,20758.4844981,-14
1643384409440,20758.4845007,-2
1643384409440,20758.4845036,0
1643384409440,20759.1787863,0
1643384409440,20759.1788006,2
1643384409440,20759.1788045,-2
1643384409440,20759.1788111,-9
1643384409482,20759.1788143,-9
1643384409482,20759.1788195,-14
1643384409482,20759.1788226,-33
1643384409482,20759.1788256,-21
1643384409482,20759.1788286,26
1643384409482,20759.1788317,47
1643384409482,20759.1788347,37
1643384409482,20759.1788377,28
1643384409482,20759.1788408,11
1643384409482,20759.178844,-4
1643384409529,20759.1788482,-9
1643384409529,20759.1788512,-9
1643384409529,20759.1788543,-9
1643384409529,20759.1788573,-14
1643384409686,20759.1788603,-23
1643384409686,20759.1788633,-18
1643384409686,20759.178867,108
1643384409686,20759.1788699,506
1643384409686,20759.1788727,1089
1643384409686,20759.1788756,1534
1643384409686,20759.1788784,1226
1643384409686,20759.1788812,-149
1643384409686,20759.1788841,-1221
1643384409686,20759.178887,-833
1643384409731,20759.1788899,-189
1643384409731,20759.1788927,-132
1643384409731,20759.1788956,-75
1643384409731,20759.1788985,40
1643384409731,20759.1789013,2
1643384409731,20759.1789042,-9
1643384409731,20759.178907,52
1643384409731,20759.1789098,61
1643384409731,20759.1789126,54
1643384409731,20759.1789155,68
1643384409768,20759.1789183,56
1643384409768,20759.1789215,37
1643384409768,20759.1789244,71
1643384409768,20759.1789271,111
1643384409768,20759.17893,125
1643384409768,20759.1789328,149
1643384409768,20759.1789356,179
1643384409768,20759.1789384,203
1643384409768,20759.1789413,234
1643384409768,20759.1789441,269
1643384409815,20759.1790268,312
1643384409815,20759.1790356,359
1643384409815,20759.1790397,397
1643384409815,20759.1790428,426
1643384409815,20759.1790457,445
1643384409815,20759.1790485,459
1643384409815,20759.1790514,464
1643384409815,20759.1790542,449
1643384409815,20759.179057,414
1643384409815,20759.1790597,362
1643384409858,20759.1790627,286
1643384409858,20759.1790655,189
1643384409858,20759.1790684,89
1643384409858,20759.1790712,7
1643384409858,20759.179074,-56
1643384409858,20759.1790769,-108
1643384409858,20759.1790797,-139
1643384409858,20759.1790826,-151
1643384409858,20759.1790854,-163
1643384409858,20759.1790882,-172
1643384409904,20759.179091,-172
1643384409904,20759.1790938,-172
1643384409904,20759.1790967,-170
1643384409904,20759.1790995,-158
1643384409904,20759.1791023,-144
1643384409904,20759.6345821,-137
1643384409904,20759.6345934,-137
1643384409904,20759.6345969,-127
1643384409904,20759.6345999,-116
1643384409904,20759.6346027,-113
1643384409947,20759.6346056,-106
1643384409947,20759.6346085,-85
1643384409947,20759.6346113,-75
1643384409947,20759.6346141,-78
1643384409947,20759.6346169,-68
1643384409947,20759.6346198,-66
1643384409947,20759.6346226,-73
1643384409947,20759.6346254,-75
1643384409947,20759.6346282,-73
1643384409947,20759.634631,-75
1643384409991,20759.6346338,-80
1643384409991,20759.6346366,-80
1643384409991,20759.6346394,-94
1643384409991,20759.6346422,-108
1643384410331,20759.6346449,-108
1643384410331,20759.6346477,-113
1643384410331,20759.6346505,-116
1643384410331,20759.6346533,-106
1643384410331,20759.6346561,-113
1643384410331,20759.6346588,-118
1643384410331,20759.6346616,-106
1643384410331,20759.6346643,-99
1643384410331,20759.6346671,-97
1643384410331,20759.6346699,-89
1643384410362,20759.6346727,-85
1643384410362,20759.6346755,-89
1643384410362,20759.6346783,-87
1643384410362,20759.6346811,-80
1643384410362,20759.6346839,-75
1643384410362,20759.6346867,-68
1643384410362,20759.6346894,-61
1643384410362,20759.6346922,-59
1643384410362,20759.634695,-59
1643384410362,20759.634698,-54
1643384410404,20759.6347007,-49
1643384410404,20759.6347035,-40
1643384410404,20759.6347063,-35
1643384410404,20759.6347091,-35
1643384410404,20759.634712,-37
1643384410404,20759.6347147,-35
1643384410404,20759.6347175,-26
1643384410404,20759.6347204,-21
1643384410404,20759.6347232,-21
1643384410404,20759.634726,-16
1643384410434,20759.634729,-16
1643384410434,20759.6347319,-16
1643384410434,20759.6347347,-16
1643384410434,20759.6347375,-14
1643384410434,20759.6347403,-14
1643384410434,20759.6347431,-9
1643384410434,20759.6347458,-4
1643384410434,20759.6347487,-4
1643384410434,20759.6347515,-4
1643384410434,20759.6347544,2
1643384410467,20759.6347572,4
1643384410467,20759.63476,4
1643384410467,20759.6347628,7
1643384410467,20759.6347657,4
1643384410467,20759.6347685,4
1643384410467,20759.6347713,11
1643384410467,20759.6347741,16
1643384410467,20759.634777,16
1643384410467,20759.6347798,18
1643384410467,20759.6347827,18
1643384410502,20759.6347855,18
1643384410502,20759.6347883,18
1643384410502,20759.6347914,16
1643384410502,20759.6347942,14
1643384410502,20760.2844013,16
1643384410502,20760.2844154,23
1643384410502,20760.284419,35
1643384410502,20760.2844222,61
1643384410502,20760.2844263,92
1643384410502,20760.2844294,97
1643384410539,20760.2844343,80
1643384410539,20760.2844372,71
1643384410539,20760.2844403,54
1643384410539,20760.2844443,18
1643384410539,20760.2844475,-16
1643384410539,20760.2844524,-21
1643384410539,20760.2844554,-9
1643384410539,20760.2844584,-14
1643384410539,20760.2844629,-37
1643384410539,20760.2844659,-11
1643384410566,20760.2844689,210
1643384410566,20760.2844719,703
1643384410566,20760.2844748,1274
1643384410566,20760.2844777,1544
1643384410778,20760.2844806,843
1643384410778,20760.2844836,-665
1643384410778,20760.2844864,-1257
1643384410778,20760.2844894,-577
1643384410778,20760.2844922,-144
1643384410778,20760.2844951,-165
1643384410778,20760.284498,-37
1643384410778,20760.2845008,40
1643384410778,20760.2845036,-16
1643384410778,20760.2845065,4
1643384410819,20760.2845093,49
1643384410819,20760.2845122,40
1643384410819,20760.2845151,47
1643384410819,20760.2845178,73
1643384410819,20760.2845207,75
1643384410819,20760.2845235,80
1643384410819,20760.2845263,106
1643384410819,20760.2845292,127
1643384410819,20760.2845321,146
1643384410819,20760.2845349,172
1643384410851,20760.2845379,196
1643384410851,20760.2845407,224
1643384410851,20760.2845435,262
1643384410851,20760.2845464,293
1643384410851,20760.2845492,326
1643384410851,20760.2845522,369
1643384410851,20760.284555,407
1643384410851,20760.2845578,428
1643384410851,20760.2845606,452
1643384410851,20760.2845635,466
1643384410890,20760.2845664,457
1643384410890,20760.2845692,428
1643384410890,20760.284572,393
1643384410890,20760.2845748,336
1643384410890,20760.2845778,248
1643384410890,20760.2845806,144
1643384410890,20760.2845837,52
1643384410890,20760.2845866,-23
1643384410890,20760.2845902,-92
1643384410890,20760.2845931,-146
1643384410931,20760.2845959,-177
1643384410931,20760.2845992,-191
1643384410931,20760.2846021,-203
1643384410931,20760.284605,-208
1643384410931,20760.2846079,-206
1643384410931,20760.2846107,-201
1643384410931,20760.2846136,-196
1643384410931,20760.2846165,-187
1643384410931,20760.2846197,-172
1643384410931,20760.2846225,-156
1643384410970,20760.2846253,-146
1643384410970,20760.2846282,-134
1643384410970,20760.284631,-123
1643384410970,20760.7347151,-111
1643384410970,20760.7347282,-97
1643384410970,20760.7347319,-82
1643384410970,20760.7347371,-75
1643384410970,20760.7347448,-73
1643384410970,20760.7347499,-71
1643384410970,20760.7347528,-66
1643384411015,20760.7347557,-61
1643384411015,20760.7347595,-68
1643384411015,20760.7347626,-75
1643384411015,20760.7347658,-71
1643384411015,20760.7347702,-63
1643384411015,20760.7347732,-66
1643384411015,20760.7347762,-68
1643384411015,20760.7347791,-71
1643384411015,20760.734782,-68
1643384411015,20760.7347849,-66
1643384411054,20760.7347878,-68
1643384411054,20760.7347906,-63
1643384411054,20760.7347935,-61
1643384411054,20760.7347964,-71
1643384411424,20760.7347992,-87
1643384411424,20760.7348021,-87
1643384411424,20760.734805,-78
1643384411424,20760.7348079,-75
1643384411424,20760.7348107,-73
1643384411424,20760.7348136,-68
1643384411424,20760.7348165,-63
1643384411424,20760.7348194,-56
1643384411424,20760.7348223,-54
1643384411424,20760.7348252,-52
1643384411465,20760.7348284,-44
1643384411465,20760.7348313,-40
1643384411465,20760.7348341,-42
1643384411465,20760.734837,-42
1643384411465,20760.7348399,-40
1643384411465,20760.7348429,-37
1643384411465,20760.7348464,-28
1643384411465,20760.7348493,-23
1643384411465,20760.7348522,-26
1643384411465,20760.7348551,-23
1643384411506,20760.734858,-21
1643384411506,20760.7348608,-21
1643384411506,20760.7348637,-16
1643384411506,20760.7348666,-11
1643384411506,20760.7348698,-9
1643384411506,20760.7348727,-4
1643384411506,20760.7348756,-2
1643384411506,20760.7348784,-2
1643384411506,20760.7348813,0
1643384411506,20760.7348843,2
1643384411544,20760.7348871,4
1643384411544,20760.73489,7
1643384411544,20760.7348929,4
1643384411544,20760.734896,-2
1643384411544,20760.7348993,-7
1643384411544,20760.7349021,2
1643384411544,20760.734905,9
1643384411544,20760.7349079,21
1643384411544,20760.7349107,52
1643384411544,20760.7349136,80
1643384411589,20760.7349165,78
1643384411589,20760.7349194,66
1643384411589,20760.7349222,56
1643384411589,20760.7349251,40
1643384411589,20760.734928,26
1643384411589,20760.7349309,18
1643384411589,20760.7349338,16
1643384411589,20760.7349366,21
1643384411589,20760.7349395,16
1643384411589,20760.7349424,2
1643384411632,20760.7349452,49
1643384411632,20760.7349481,319
1643384411632,20761.3805806,838
1643384411632,20761.3805917,1387
1643384411632,20761.3805951,1506
1643384411632,20761.3805981,558
1643384411632,20761.3806011,-907
1643384411632,20761.3806039,-1198
1643384411632,20761.3806067,-492
1643384411632,20761.3806095,-194
1643384411666,20761.3806122,-187
1643384411666,20761.380615,-28
1643384411666,20761.3806177,9
1643384411666,20761.3806205,-44
1643384411666,20761.3806232,-7
1643384411666,20761.3806259,28
1643384411666,20761.3806286,23
1643384411666,20761.3806314,37
1643384411666,20761.3806341,56
1643384411666,20761.3806368,61
1643384411711,20761.3806395,78
1643384411711,20761.3806422,97
1643384411711,20761.380645,113
1643384411711,20761.3806476,137
1643384411957,20761.3806505,165
1643384411957,20761.3806532,196
1643384411957,20761.3806559,222
1643384411957,20761.3806587,248
1643384411957,20761.3806614,284
1643384411957,20761.3806655,331
1643384411957,20761.3806697,378
1643384411957,20761.3806738,416
1643384411957,20761.3806766,452
1643384411957,20761.3806794,476
1643384412002,20761.3806821,478
1643384412002,20761.3806849,464
1643384412002,20761.3806876,435
1643384412002,20761.3806903,383
1643384412002,20761.3806931,303
1643384412002,20761.3806958,208
1643384412002,20761.3806985,106
1643384412002,20761.3807012,9
1643384412002,20761.3807046,-71
1643384412002,20761.3807073,-130
1643384412043,20761.38071,-168
1643384412043,20761.3807147,-189
1643384412043,20761.3807197,-201
1643384412043,20761.3807245,-206
1643384412043,20761.3807292,-206
1643384412043,20761.380749,-206
1643384412043,20761.3807523,-203
1643384412043,20761.3807551,-198
1643384412043,20761.3807579,-189
1643384412043,20761.3807607,-179
1643384412086,20761.3807635,-172
1643384412086,20761.3807663,-163
1643384412086,20761.3807691,-144
1643384412086,20761.3807718,-127
1643384412086,20761.3807746,-116
1643384412086,20761.3807774,-108
1643384412086,20761.3807801,-104
1643384412086,20761.3807828,-99
1643384412086,20761.3807856,-92
1643384412086,20761.3807883,-78
1643384412134,20761.3807911,-71
1643384412134,20761.3807938,-73
1643384412134,20761.3807968,-73
1643384412134,20761.3807996,-73
1643384412134,20761.3808024,-82
1643384412134,20761.3808051,-89
1643384412134,20761.3808079,-85
1643384412134,20761.3808107,-78
1643384412134,20761.3808136,-82
1643384412134,20761.3808167,-85
1643384412177,20761.3808197,-78
1643384412177,20761.8784922,-75
1643384412177,20761.8785053,-75
1643384412177,20761.8785091,-71
1643384412177,20761.8785143,-66
1643384412177,20761.8785176,-75
1643384412177,20761.8785216,-89
1643384412177,20761.8785247,-85
1643384412177,20761.8785277,-73
1643384412177,20761.8785308,-68
1643384412225,20761.8785339,-63
1643384412225,20761.878537,-59
1643384412225,20761.8785419,-56
1643384412225,20761.8785469,-54
1643384412225,20761.8785518,-47
1643384412225,20761.8785554,-42
1643384412225,20761.8785585,-44
1643384412225,20761.8785627,-47
1643384412225,20761.8785657,-49
1643384412225,20761.8785688,-56
1643384412278,20761.8785719,-54
1643384412278,20761.8785749,-42
1643384412278,20761.8785779,-42
1643384412278,20761.8785809,-42
1643384412677,20761.878584,-35
1643384412677,20761.878587,-28
1643384412677,20761.8785898,-28
1643384412677,20761.8785926,-28
1643384412677,20761.8785955,-23
1643384412677,20761.8785983,-18
1643384412677,20761.8786012,-14
1643384412677,20761.878604,-14
1643384412677,20761.8786069,-11
1643384412677,20761.8786097,-7
1643384412714,20761.8786125,-7
1643384412714,20761.8786153,-9
1643384412714,20761.8786181,-11
1643384412714,20761.878621,-14
1643384412714,20761.8786238,-9
1643384412714,20761.8786266,-2
1643384412714,20761.8786296,9
1643384412714,20761.8786326,40
1643384412714,20761.8786357,73
1643384412714,20761.8786412,73
1643384412765,20761.8786455,59
1643384412765,20761.8786505,49
1643384412765,20761.8786533,33
1643384412765,20761.8786564,21
1643384412765,20761.8786594,18
1643384412765,20761.8786645,11
1643384412765,20761.8786674,7
1643384412765,20761.8786704,2
1643384412765,20761.8786754,-16
1643384412765,20761.8786784,26
1643384412813,20761.8786815,310
1643384412813,20761.878687,845
1643384412813,20761.8786901,1399
1643384412813,20761.8786932,1534
1643384412813,20761.8786962,592
1643384412813,20761.8786992,-907
1643384412813,20761.8787024,-1193
1643384412813,20761.8787073,-402
1643384412813,20761.8787121,-75
1643384412813,20761.8787168,-130
1643384412857,20761.8787217,-9
1643384412857,20761.8787248,44
1643384412857,20761.8787279,-4
1643384412857,20761.878731,26
1643384412857,20761.878734,66
1643384412857,20761.8787371,56
1643384412857,20761.8787401,61
1643384412857,20761.8787432,80
1643384412857,20761.8787462,89
1643384412857,20761.8787492,101
1643384412908,20762.6329456,120
1643384412908,20762.6329577,142
1643384412908,20762.6329616,156
1643384412908,20762.6329649,153
1643384412908,20762.6329681,156
1643384412908,20762.6329711,189
1643384412908,20762.632974,232
1643384412908,20762.632977,262
1643384412908,20762.63298,298
1643384412908,20762.6329829,343
1643384412958,20762.6329859,383
1643384412958,20762.6329887,416
1643384412958,20762.6329917,442
1643384412958,20762.6329946,452
1643384412958,20762.6329975,442
1643384412958,20762.6330004,414
1643384412958,20762.6330033,364
1643384412958,20762.6330062,293
1643384412958,20762.6330095,203
1643384412958,20762.6330124,106
1643384412997,20762.6330153,16
1643384412997,20762.6330183,-56
1643384412997,20762.6330212,-108
1643384412997,20762.6330241,-146
1643384413075,20762.6330271,-170
1643384413075,20762.63303,-177
1643384413075,20762.6330343,-182
1643384413075,20762.6330392,-184
1643384413075,20762.6330423,-182
1643384413075,20762.6330454,-175
1643384413075,20762.6330483,-170
1643384413075,20762.6330513,-161
1643384413075,20762.6330543,-146
1643384413075,20762.6330572,-137
1643384413117,20762.6330601,-125
1643384413117,20762.6330631,-113
1643384413117,20762.6330661,-104
1643384413117,20762.6330689,-92
1643384413117,20762.6330719,-85
1643384413117,20762.6330749,-82
1643384413117,20762.6330778,-75
1643384413117,20762.6330807,-68
1643384413117,20762.6330839,-68
1643384413117,20762.6330868,-68
1643384413155,20762.6330898,-71
1643384413155,20762.6330928,-71
1643384413155,20762.6330957,-66
1643384413155,20762.6331025,-63
1643384413155,20762.6331071,-68
1643384413155,20762.6331106,-73
1643384413155,20762.6331337,-80
1643384413155,20762.6331397,-85
1643384413155,20762.6331451,-85
1643384413155,20762.6331501,-80
1643384413195,20762.6331531,-73
1643384413195,20762.6331562,-73
1643384413195,20762.6331597,-75
1643384413195,20762.6331627,-78
1643384413195,20762.6331658,-75
1643384413195,20762.6331699,-71
1643384413195,20762.6331729,-61
1643384413195,20762.6331758,-59
1643384413195,20762.6331787,-61
1643384413195,20762.6331837,-59
1643384413233,20762.633187,-52
1643384413233,20762.6331913,-49
1643384413233,20762.6331945,-44
1643384413233,20762.6331984,-40
1643384413233,20762.6332016,-37
1643384413233,20762.6332047,-42
1643384413233,20762.6332083,-42
1643384413233,20762.6332113,-40
1643384413233,20762.6332154,-40
1643384413233,20763.0344182,-37
1643384413266,20763.0344322,-33
1643384413266,20763.0344372,-35
1643384413266,20763.0344406,-30
1643384413266,20763.0344569,-21
1643384413266,20763.0344754,-18
1643384413266,20763.0344798,-18
1643384413266,20763.0344833,-18
1643384413266,20763.034489,-28
1643384413266,20763.0344921,-30
1643384413266,20763.0344971,-18
1643384413300,20763.0345003,-9
1643384413300,20763.0345062,-16
1643384413300,20763.0345093,-21
1643384413300,20763.0345132,-14
1643384413300,20763.0345236,-18
1643384413300,20763.0345268,-26
1643384413300,20763.0345319,-21
1643384413300,20763.0345351,-16
1643384413300,20763.03454,-14
1643384413300,20763.0345432,-11
1643384413335,20763.034549,-11
1643384413335,20763.034553,-11
1643384413335,20763.034556,-14
1643384413335,20763.0345591,-16
1643384413677,20763.0345644,-11
1643384413677,20763.0345675,-4
1643384413677,20763.0345705,9
1643384413677,20763.0345734,37
1643384413677,20763.0345762,61
1643384413677,20763.0345792,54
1643384413677,20763.0345821,35
1643384413677,20763.0345849,26
1643384413677,20763.0345878,16
1643384413677,20763.0345907,-2
1643384413717,20763.0345936,-18
1643384413717,20763.0345965,-18
1643384413717,20763.0345994,-14
1643384413717,20763.0346023,-23
1643384413717,20763.0346052,-35
1643384413717,20763.0346081,68
1643384413717,20763.034611,454
1643384413717,20763.0346139,1051
1643384413717,20763.0346168,1574
1643384413717,20763.0346231,1437
1643384413756,20763.0346273,113
1643384413756,20763.0346306,-1200
1643384413756,20763.0346346,-978
1643384413756,20763.0346377,-239
1643384413756,20763.0346416,-151
1643384413756,20763.0346447,-144
1643384413756,20763.0346498,4
1643384413756,20763.0346527,-4
1643384413756,20763.0346558,-40
1643384413756,20763.0346608,11
1643384413795,20763.0346638,28
1643384413795,20763.0346667,18
1643384413795,20763.0346699,42
1643384413795,20763.0346751,63
1643384413795,20763.0346783,63
1643384413795,20763.0346833,80
1643384413795,20763.0347145,101
1643384413795,20763.0347211,108
1643384413795,20763.0347247,127
1643384413795,20763.03473,161
1643384413834,20763.0347355,187
1643384413834,20763.0347387,215
1643384413834,20763.0347418,243
1643384413834,20763.0347449,274
1643384413834,20763.0347479,322
1643384413834,20763.034751,376
1643384413834,20763.0347541,412
1643384413834,20763.0347571,435
1643384413834,20763.6350217,447
1643384413834,20763.6350361,447
1643384413878,20763.6350399,433
1643384413878,20763.6350451,397
1643384413878,20763.6350482,341
1643384413878,20763.6350529,267
1643384413878,20763.635056,175
1643384413878,20763.6350607,71
1643384413878,20763.6350639,-11
1643384413878,20763.6350688,-73
1643384413878,20763.6350718,-118
1643384413878,20763.6350768,-146
1643384413919,20763.6350796,-172
1643384413919,20763.6350826,-206
1643384413919,20763.6350856,-227
1643384413919,20763.6350885,-220
1643384413919,20763.6350915,-210
1643384413919,20763.6350944,-210
1643384413919,20763.6350979,-201
1643384413919,20763.6351027,-189
1643384413919,20763.6351058,-184
1643384413919,20763.6351106,-170
1643384413964,20763.6351136,-153
1643384413964,20763.6351194,-142
1643384413964,20763.6351224,-123
1643384413964,20763.6351253,-106
1643384414213,20763.6351283,-106
1643384414213,20763.6351312,-101
1643384414213,20763.635134,-85
1643384414213,20763.6351367,-78
1643384414213,20763.6351395,-80
1643384414213,20763.6351423,-68
1643384414213,20763.635145,-61
1643384414213,20763.6351479,-68
1643384414213,20763.6351506,-68
1643384414213,20763.6351534,-73
1643384414257,20763.6351562,-94
1643384414257,20763.635159,-89
1643384414257,20763.6351618,-82
1643384414257,20763.6351645,-94
1643384414257,20763.6351673,-94
1643384414257,20763.6351701,-87
1643384414257,20763.6351729,-89
1643384414257,20763.6351764,-82
1643384414257,20763.6351792,-78
1643384414257,20763.635182,-87
1643384414292,20763.6351848,-89
1643384414292,20763.6351876,-78
1643384414292,20763.6351903,-73
1643384414292,20763.6351931,-73
1643384414292,20763.6351959,-68
1643384414292,20763.6351987,-66
1643384414292,20763.6352015,-63
1643384414292,20763.6352043,-61
1643384414292,20763.6352074,-59
1643384414292,20763.6352102,-59
1643384414328,20763.6352131,-56
1643384414328,20763.6352159,-44
1643384414328,20763.6352189,-40
1643384414328,20763.6352216,-44
1643384414328,20763.6352247,-42
1643384414328,20763.6352274,-40
1643384414328,20763.6352302,-40
1643384414328,20763.635233,-33
1643384414328,20763.6352361,-23
1643384414328,20763.635239,-23
1643384414363,20763.6352419,-23
1643384414363,20763.6352447,-23
1643384414363,20763.6352484,-18
1643384414363,20763.6352512,-7
1643384414363,20763.6352543,-4
1643384414363,20763.635257,-11
1643384414363,20763.6352598,-11
1643384414363,20764.1345572,-7
1643384414363,20764.1345719,-7
1643384414363,20764.1345758,-7
1643384414407,20764.1345799,-2
1643384414407,20764.1345832,7
1643384414407,20764.134587,4
1643384414407,20764.1345903,-2
1643384414407,20764.1345942,0
1643384414407,20764.1345974,9
1643384414407,20764.1346013,4
1643384414407,20764.1346044,-4
1643384414407,20764.1346084,0
1643384414407,20764.1346115,0
1643384414438,20764.1346153,0
1643384414438,20764.1346184,26
1643384414438,20764.1346222,68
1643384414438,20764.1346255,78
1643384414438,20764.1346293,54
1643384414438,20764.1346326,18
1643384414438,20764.1346366,-4
1643384414438,20764.1346398,-14
1643384414438,20764.1346436,-21
1643384414438,20764.1346467,-18
1643384414474,20764.1346505,-14
1643384414474,20764.1346537,-21
1643384414474,20764.1346574,-37
1643384414474,20764.1346606,-30
1643384414727,20764.1346648,118
1643384414727,20764.1346678,542
1643384414727,20764.1346707,1117
1643384414727,20764.1346748,1499
1643384414727,20764.1346778,1091
1643384414727,20764.1346807,-324
1643384414727,20764.1346837,-1285
1643384414727,20764.1346866,-788
1643384414727,20764.1346897,-156
1643384414727,20764.1346925,-132
1643384414766,20764.1346954,-75
1643384414766,20764.1346983,52
1643384414766,20764.1347013,14
1643384414766,20764.1347042,-9
1643384414766,20764.1347071,47
1643384414766,20764.1347099,52
1643384414766,20764.1347128,42
1643384414766,20764.1347157,73
1643384414766,20764.1347187,87
1643384414766,20764.1347217,92
1643384414802,20764.1347248,111
1643384414802,20764.1347302,120
1643384414802,20764.1347334,137
1643384414802,20764.1347377,165
1643384414802,20764.134741,184
1643384414802,20764.1347463,210
1643384414802,20764.1347493,251
1643384414802,20764.1347524,298
1643384414802,20764.1347555,336
1643384414802,20764.1347597,355
1643384414843,20764.1347631,383
1643384414843,20764.1347679,426
1643384414843,20764.1347718,447
1643384414843,20764.1347767,447
1643384414843,20764.1347816,445
1643384414843,20764.1347858,435
1643384414843,20764.1347888,400
1643384414843,20764.1347918,336
1643384414843,20764.1347947,260
1643384414843,20764.1347978,177
1643384414881,20764.1348035,85
1643384414881,20764.1348067,0
1643384414881,20764.1348108,-61
1643384414881,20764.134814,-108
1643384414881,20764.1348196,-146
1643384414881,20764.1348229,-158
1643384414881,20764.6850022,-158
1643384414881,20764.6850231,-161
1643384414881,20764.685028,-161
1643384414881,20764.6850313,-161
1643384414919,20764.6850546,-165
1643384414919,20764.6850623,-163
1643384414919,20764.685066,-156
1643384414919,20764.6850711,-137
1643384414919,20764.6850743,-111
1643384414919,20764.6850784,-101
1643384414919,20764.6850815,-120
1643384414919,20764.6850851,-127
1643384414919,20764.6850911,-108
1643384414919,20764.6850942,-99
1643384414960,20764.6850973,-99
1643384414960,20764.6851004,-85
1643384414960,20764.6851034,-73
1643384414960,20764.6851064,-75
1643384414960,20764.6851094,-78
1643384414960,20764.6851124,-71
1643384414960,20764.6851154,-78
1643384414960,20764.6851184,-89
1643384414960,20764.6851214,-94
1643384414960,20764.6851244,-99
1643384415000,20764.6851274,-99
1643384415000,20764.6851304,-92
1643384415000,20764.6851334,-97
1643384415000,20764.6851365,-99
1643384415387,20764.6851395,-89
1643384415387,20764.6851424,-85
1643384415387,20764.6851451,-82
1643384415387,20764.685148,-80
1643384415387,20764.6851508,-80
1643384415387,20764.6851536,-75
1643384415387,20764.6851564,-73
1643384415387,20764.6851592,-82
1643384415387,20764.685162,-87
1643384415387,20764.6851648,-73
1643384415426,20764.6851677,-59
1643384415426,20764.6851705,-63
1643384415426,20764.6851733,-61
1643384415426,20764.6851761,-49
1643384415426,20764.6851791,-44
1643384415426,20764.6851819,-49
1643384415426,20764.6851847,-49
1643384415426,20764.6851876,-44
1643384415426,20764.6851904,-35
1643384415426,20764.6851932,-33
1643384415469,20764.685196,-37
1643384415469,20764.6851988,-35
1643384415469,20764.6852016,-26
1643384415469,20764.6852044,-26
1643384415469,20764.6852073,-28
1643384415469,20764.6852101,-23
1643384415469,20764.6852129,-18
1643384415469,20764.6852157,-11
1643384415469,20764.6852186,-9
1643384415469,20764.6852214,-14
1643384415508,20764.6852242,-16
1643384415508,20764.685227,-7
1643384415508,20764.6852304,0
1643384415508,20764.6852333,-2
1643384415508,20764.6852361,-4
1643384415508,20764.6852389,-4
1643384415508,20764.6852418,-2
1643384415508,20764.6852446,-2
1643384415508,20764.6852474,-2
1643384415508,20764.6852503,-4
1643384415550,20764.6852533,-4
1643384415550,20764.6853382,2
1643384415550,20764.6853434,0
1643384415550,20764.6853465,-4
1643384415550,20764.6853495,-2
1643384415550,20765.3316111,-2
1643384415550,20765.3316223,-9
1643384415550,20765.3316257,-2
1643384415550,20765.3316287,4
1643384415550,20765.3316316,9
1643384415590,20765.3316343,44
1643384415590,20765.3316371,82
1643384415590,20765.3316405,68
1643384415590,20765.3316433,37
1643384415590,20765.331646,9
1643384415590,20765.3316488,-16
1643384415590,20765.3316515,-14
1643384415590,20765.3316543,-11
1643384415590,20765.331657,-21
1643384415590,20765.3316679,-21
1643384415633,20765.3316718,-30
1643384415633,20765.3316746,-59
1643384415633,20765.3316774,2
1643384415633,20765.3316802,319
1643384415633,20765.331683,862
1643384415633,20765.3316857,1390
1643384415633,20765.3316884,1451
1643384415633,20765.3316912,428
1643384415633,20765.3316939,-980
1643384415633,20765.3316967,-1094
1643384415677,20765.3316994,-326
1643384415677,20765.3317021,-82
1643384415677,20765.3317049,-137
1643384415677,20765.3317076,-28
1643384415962,20765.3317119,2
1643384415962,20765.331715,-33
1643384415962,20765.3317177,14
1643384415962,20765.3317205,44
1643384415962,20765.3317234,23
1643384415962,20765.3317261,35
1643384415962,20765.3317288,63
1643384415962,20765.3317319,68
1643384415962,20765.3317347,78
1643384415962,20765.331738,104
1643384416006,20765.3317408,120
1643384416006,20765.3317436,134
1643384416006,20765.3317463,153
1643384416006,20765.3317491,182
1643384416006,20765.3317518,215
1643384416006,20765.3317546,239
1643384416006,20765.3317574,269
1643384416006,20765.3317601,307
1643384416006,20765.3317629,336
1643384416006,20765.3317703,369
1643384416046,20765.3317731,404
1643384416046,20765.3317758,421
1643384416046,20765.3317785,421
1643384416046,20765.3317813,412
1643384416046,20765.3317841,383
1643384416046,20765.3317868,338
1643384416046,20765.3317901,277
1643384416046,20765.3317928,206
1643384416046,20765.3317955,125
1643384416046,20765.3317982,35
1643384416089,20765.3318009,-33
1643384416089,20765.3318037,-75
1643384416089,20765.3318064,-106
1643384416089,20765.3318092,-132
1643384416089,20765.3318119,-142
1643384416089,20765.3318147,-132
1643384416089,20765.3318174,-142
1643384416089,20765.3318202,-153
1643384416089,20765.3318228,-144
1643384416089,20765.3318255,-146
1643384416132,20765.3318283,-153
1643384416132,20765.331831,-113
1643384416132,20765.3318337,-78
1643384416132,20765.3318365,-89
1643384416132,20765.8830031,-82
1643384416132,20765.8830147,-68
1643384416132,20765.8830181,-71
1643384416132,20765.8830212,-68
1643384416132,20765.8830241,-49
1643384416132,20765.8830269,-40
1643384416178,20765.8830298,-44
1643384416178,20765.8830325,-54
1643384416178,20765.8830352,-63
1643384416178,20765.883038,-56
1643384416178,20765.883041,-44
1643384416178,20765.8830438,-42
1643384416178,20765.8830465,-49
1643384416178,20765.8830496,-59
1643384416178,20765.8830524,-61
1643384416178,20765.8830551,-49
1643384416221,20765.883058,-61
1643384416221,20765.8830607,-75
1643384416221,20765.8830634,-56
1643384416221,20765.8830661,-49
1643384416221,20765.8830689,-73
1643384416221,20765.8830716,-89
1643384416221,20765.8830743,-80
1643384416221,20765.8830783,-59
1643384416221,20765.8830811,-54
1643384416221,20765.8830839,-66
1643384416266,20765.8830866,-68
1643384416266,20765.8830894,-56
1643384416266,20765.8830928,-54
1643384416266,20765.8830958,-54
1643384416481,20765.8830987,-42
1643384416481,20765.8831019,-30
1643384416481,20765.8831047,-16
1643384416481,20765.8831074,-30
1643384416481,20765.8831102,-56
1643384416481,20765.8831129,-23
1643384416481,20765.8831156,2
1643384416481,20765.8831184,-21
1643384416481,20765.8831212,-28
1643384416481,20765.8831241,-2
1643384416524,20765.8831268,4
1643384416524,20765.8831295,-2
1643384416524,20765.8831323,4
1643384416524,20765.8831351,7
1643384416524,20765.8831378,2
1643384416524,20765.8831407,7
1643384416524,20765.8831434,4
1643384416524,20765.8831463,7
1643384416524,20765.883149,9
1643384416524,20765.8831518,11
1643384416567,20765.8831546,16
1643384416567,20765.8831576,9
1643384416567,20765.8831605,-7
1643384416567,20765.883164,4
1643384416567,20765.8831668,28
1643384416567,20765.8831696,33
1643384416567,20765.8831723,16
1643384416567,20765.8831751,28
1643384416567,20765.883178,40
1643384416567,20765.8831807,26
1643384416611,20765.8831837,33
1643384416611,20765.8831864,37
1643384416611,20765.8831892,16
1643384416611,20765.8831923,28
1643384416611,20765.8831951,47
1643384416611,20765.8831981,49
1643384416611,20765.8832012,71
1643384416611,20765.8832039,101
1643384416611,20765.8832068,92
1643384416611,20765.8832096,80
1643384416683,20765.8832123,104
1643384416683,20765.883215,78
1643384416683,20765.8832178,33
1643384416683,20766.4350385,44
1643384416683,20766.4350518,42
1643384416683,20766.4350766,21
1643384416683,20766.4350817,28
1643384416683,20766.435085,33
1643384416683,20766.4350878,42
1643384416683,20766.4350906,179
1643384416705,20766.4350934,563
1643384416705,20766.4350962,1063
1643384416705,20766.4350989,1380
1643384416705,20766.4351016,1070
1643384416705,20766.4351044,-52
1643384416705,20766.4351072,-942
1643384416705,20766.4351099,-710
1643384416705,20766.4351126,-187
1643384416705,20766.4351153,-63
1643384416705,20766.4351181,0
1643384416739,20766.4351207,68
1643384416739,20766.4351234,21
1643384416739,20766.4351261,-2
1643384416739,20766.4351288,35
1643384416739,20766.4351314,52
1643384416739,20766.4351341,59
1643384416739,20766.4351368,80
1643384416739,20766.4351394,75
1643384416739,20766.435143,71
1643384416739,20766.4351458,101
1643384416763,20766.4351486,125
1643384416763,20766.4351515,130
1643384416763,20766.4351543,151
1643384416763,20766.4351572,177
1643384416977,20766.4351601,189
1643384416977,20766.4351629,196
1643384416977,20766.4351656,220
1643384416977,20766.4351683,258
1643384416977,20766.4351709,272
1643384416977,20766.4351736,279
1643384416977,20766.4351763,310
1643384416977,20766.435179,324
1643384416977,20766.4351816,319
1643384416977,20766.4351843,324
1643384417001,20766.435187,303
1643384417001,20766.4351896,265
1643384417001,20766.4351923,253
1643384417001,20766.435195,217
1643384417001,20766.4351977,142
1643384417001,20766.4352005,78
1643384417001,20766.4352031,37
1643384417001,20766.4352058,14
1643384417001,20766.4352084,-18
1643384417001,20766.4352111,-68
1643384417027,20766.4352137,-78
1643384417027,20766.4352164,-75
1643384417027,20766.4352191,-106
1643384417027,20766.4352218,-118
1643384417027,20766.4352245,-92
1643384417027,20766.4352271,-71
1643384417027,20766.4352298,-78
1643384417027,20766.4352325,-66
1643384417027,20766.4352352,-40
1643384417027,20766.4352379,-52
1643384417052,20766.4352406,-47
1643384417052,20766.4352437,-28
1643384417052,20766.4352463,-33
1643384417052,20766.4352491,-37
1643384417052,20766.435252,-30
1643384417052,20766.4352548,-21
1643384417052,20766.4352576,-33
1643384417052,20766.4352604,-61
1643384417052,20766.4352631,-54
1643384417052,20766.4352657,-33
1643384417076,20766.4352684,-42
1643384417076,20766.4352711,-47
1643384417076,20766.9348177,-52
1643384417076,20766.9348289,-61
1643384417076,20766.9348324,-63
1643384417076,20766.9348353,-59
1643384417076,20766.9348381,-49
1643384417076,20766.9348408,-44
1643384417076,20766.9348436,-54
1643384417076,20766.9348463,-56
1643384417101,20766.9348491,-40
1643384417101,20766.9348518,-47
1643384417101,20766.9348545,-56
1643384417101,20766.9348572,-52
1643384417101,20766.9348599,-44
1643384417101,20766.9348625,-30
1643384417101,20766.9348652,-26
1643384417101,20766.9348678,-33
1643384417101,20766.9348712,-35
1643384417101,20766.934874,-40
1643384417127,20766.9348767,-71
1643384417127,20766.9348794,-78
1643384417127,20766.9348821,-44
1643384417127,20766.9348848,-30
1643384417127,20766.9348875,-49
1643384417127,20766.9348901,-56
1643384417127,20766.9348928,-37
1643384417127,20766.9348957,-33
1643384417127,20766.9348984,-52
1643384417127,20766.934901,-54
1643384417152,20766.9349037,-28
1643384417152,20766.9349063,-9
1643384417152,20766.934909,-16
1643384417152,20766.9349118,-37
1643384417526,20766.9349144,-44
1643384417526,20766.9349173,-35
1643384417526,20766.93492,-30
1643384417526,20766.9349226,-35
1643384417526,20766.9349253,-40
1643384417526,20766.934928,-33
1643384417526,20766.934931,-14
1643384417526,20766.9349337,-7
1643384417526,20766.9349364,-7
1643384417526,20766.9349391,18
1643384417551,20766.9349418,37
1643384417551,20766.9349445,16
1643384417551,20766.9349472,2
1643384417551,20766.9349499,2
1643384417551,20766.9349526,-18
1643384417551,20766.9349553,-35
1643384417551,20766.934958,-35
1643384417551,20766.9349608,-42
1643384417551,20766.9349637,-49
1643384417551,20766.9349663,-47
1643384417576,20766.9349691,-35
1643384417576,20766.9349719,37
1643384417576,20766.9349746,288
1643384417576,20766.9349777,734
1643384417576,20766.9349804,1191
1643384417576,20766.9349833,1276
1643384417576,20766.9349862,468
1643384417576,20766.9349893,-798
1643384417576,20766.9349921,-1129
1643384417576,20766.9349949,-565
1643384417601,20766.9349976,-229
1643384417601,20766.9350005,-151
1643384417601,20766.9350032,-26
1643384417601,20766.9350059,0
1643384417601,20766.9350086,-26
1643384417601,20766.9350113,7
1643384417601,20766.9350141,28
1643384417601,20766.935017,30
1643384417601,20766.9350199,54
1643384417601,20766.935023,66
1643384417626,20766.9350257,52
1643384417626,20767.48479,63
1643384417626,20767.4848032,92
1643384417626,20767.4848078,111
1643384417626,20767.4848131,130
1643384417626,20767.4848163,161
1643384417626,20767.4848212,177
1643384417626,20767.4848241,194
1643384417626,20767.4848272,236
1643384417626,20767.4848312,267
1643384417650,20767.4848343,262
1643384417650,20767.484838,288
1643384417650,20767.4848409,343
1643384417650,20767.4848439,357
1643384417650,20767.4848477,352
1643384417650,20767.4848508,350
1643384417650,20767.4848547,322
1643384417650,20767.4848576,279
1643384417650,20767.4848606,243
1643384417650,20767.4848635,201
1643384417678,20767.4848664,134
1643384417678,20767.4848693,52
1643384417678,20767.4848723,-26
1643384417678,20767.4848765,-87
1643384417678,20767.4848794,-144
1643384417678,20767.4848824,-189
1643384417678,20767.4848853,-208
1643384417678,20767.4848882,-208
1643384417678,20767.4848912,-210
1643384417678,20767.4848941,-210
1643384417703,20767.4848994,-206
1643384417703,20767.4849022,-191
1643384417703,20767.4849052,-170
1643384417703,20767.4849081,-158
1643384418128,20767.4849111,-149
1643384418128,20767.4849139,-132
1643384418128,20767.4849167,-125
1643384418128,20767.48492,-125
1643384418128,20767.4849228,-118
1643384418128,20767.4849255,-111
1643384418128,20767.4849283,-111
1643384418128,20767.484931,-106
1643384418128,20767.4849337,-99
1643384418128,20767.4849365,-106
1643384418153,20767.4849392,-113
1643384418153,20767.4849421,-106
1643384418153,20767.4849449,-97
1643384418153,20767.4849476,-97
1643384418153,20767.4849503,-104
1643384418153,20767.484953,-108
1643384418153,20767.4849558,-106
1643384418153,20767.4849586,-116
1643384418153,20767.4849615,-123
1643384418153,20767.4849645,-113
1643384418178,20767.4849674,-111
1643384418178,20767.4849703,-127
1643384418178,20767.4849732,-130
1643384418178,20767.4849763,-108
1643384418178,20767.4849803,-89
1643384418178,20767.4849833,-92
1643384418178,20767.4849892,-101
1643384418178,20767.485011,-101
1643384418178,20767.4850173,-99
1643384418178,20767.4850209,-97
1643384418204,20767.485052,-97
1643384418204,20767.4850596,-94
1643384418204,20767.4850631,-97
1643384418204,20767.4850681,-97
1643384418204,20767.4850713,-89
1643384418204,20767.4850761,-68
1643384418204,20767.4850792,-35
1643384418204,20767.485085,-7
1643384418204,20767.4850902,-2
1643384418204,20767.4850952,-14
1643384418229,20768.0845141,-28
1643384418229,20768.0845292,-37
1643384418229,20768.0845329,-33
1643384418229,20768.0845375,-33
1643384418229,20768.0845404,-35
1643384418229,20768.0845432,-33
1643384418229,20768.0845461,-40
1643384418229,20768.0845488,-61
1643384418229,20768.0845517,9
1643384418229,20768.0845545,369
1643384418260,20768.0845573,963
1643384418260,20768.0845601,1428
1643384418260,20768.0845629,1167
1643384418260,20768.0845657,-137
1643384418260,20768.0845686,-1262
1643384418260,20768.0845716,-1004
1643384418260,20768.0845745,-378
1643384418260,20768.0845775,-255
1643384418260,20768.0845804,-134
1643384418260,20768.0845838,18
1643384418285,20768.0845887,-16
1643384418285,20768.0845918,-33
1643384418285,20768.0845948,33
1643384418285,20768.0845978,40
1643384418285,20768.0846009,30
1643384418285,20768.0846059,54
1643384418285,20768.0846089,61
1643384418285,20768.0846139,68
1643384418285,20768.0846176,99
1643384418285,20768.0846207,123
1643384418314,20768.0846256,134
1643384418314,20768.0846287,165
1643384418314,20768.0846316,196
1643384418314,20768.0846346,215
1643384418630,20768.0846378,253
1643384418630,20768.0846408,307
1643384418630,20768.0846436,355
1643384418630,20768.0846464,402
1643384418630,20768.0846492,447
1643384418630,20768.084652,480
1643384418630,20768.0846548,502
1643384418630,20768.0846576,499
1643384418630,20768.0846604,480
1643384418630,20768.0846632,447
1643384418656,20768.0846659,390
1643384418656,20768.0846691,296
1643384418656,20768.0846719,177
1643384418656,20768.0846747,56
1643384418656,20768.0846775,-44
1643384418656,20768.0846803,-127
1643384418656,20768.084683,-184
1643384418656,20768.0846859,-201
1643384418656,20768.0846888,-215
1643384418656,20768.0846915,-236
1643384418683,20768.0846944,-236
1643384418683,20768.0846971,-229
1643384418683,20768.0847,-234
1643384418683,20768.0847027,-234
1643384418683,20768.0847055,-220
1643384418683,20768.0847084,-208
1643384418683,20768.0847111,-194
1643384418683,20768.084714,-175
1643384418683,20768.084729,-158
1643384418683,20768.0847347,-142
1643384418707,20768.084738,-132
1643384418707,20768.0847416,-118
1643384418707,20768.0847447,-94
1643384418707,20768.0847476,-87
1643384418707,20768.0847512,-80
1643384418707,20768.0847542,-61
1643384418707,20768.0847575,-54
1643384418707,20768.0847604,-61
1643384418707,20768.0847633,-59
1643384418707,20768.5841733,-54
1643384418737,20768.5841873,-59
1643384418737,20768.5841929,-71
1643384418737,20768.5841986,-71
1643384418737,20768.5842018,-63
1643384418737,20768.5842071,-73
1643384418737,20768.5842102,-87
1643384418737,20768.5842152,-87
1643384418737,20768.5842183,-82
1643384418737,20768.5842214,-85
1643384418737,20768.5842245,-78
1643384418764,20768.5842294,-71
1643384418764,20768.5842325,-78
1643384418764,20768.5842378,-97
1643384418764,20768.5842409,-97
1643384418764,20768.584246,-89
1643384418764,20768.5842491,-92
1643384418764,20768.5842543,-87
1643384418764,20768.5842574,-89
1643384418764,20768.5842624,-106
1643384418764,20768.5842656,-108
1643384418795,20768.5842705,-92
1643384418795,20768.5842736,-63
1643384418795,20768.5842786,-23
1643384418795,20768.5842818,2
1643384418795,20768.5842867,2
1643384418795,20768.58429,-7
1643384418795,20768.5842949,-9
1643384418795,20768.584298,-14
1643384418795,20768.584304,-23
1643384418795,20768.5843071,-21
1643384418831,20768.5843121,-21
1643384418831,20768.5843153,-35
1643384418831,20768.5843202,-61
1643384418831,20768.5843234,-52
1643384419276,20768.5843283,139
1643384419276,20768.5843314,632
1643384419276,20768.5843344,1250
1643384419276,20768.5843373,1584
1643384419276,20768.5843402,989
1643384419276,20768.5843432,-530
1643384419276,20768.5843461,-1347
1643384419276,20768.5843498,-734
1643384419276,20768.5843529,-168
1643384419276,20768.5843558,-194
1643384419303,20768.5843589,-130
1643384419303,20768.5843618,-11
1643384419303,20768.5843647,-47
1643384419303,20768.5843676,-49
1643384419303,20768.5843706,11
1643384419303,20768.5843735,23
1643384419303,20768.5843765,11
1643384419303,20768.5843794,28
1643384419303,20768.5843825,44
1643384419303,20768.5843855,56
1643384419334,20768.5843886,78
1643384419334,20768.5843917,104
1643384419334,20768.5843969,120
1643384419334,20768.5844,142
1643384419334,20768.5844049,177
1643384419334,20768.584408,213
1643384419334,20768.5844112,248
1643384419334,20768.5844154,296
1643384419334,20768.5844185,343
1643384419334,20768.5844226,393
1643384419366,20768.5844258,438
1643384419366,20768.5844297,473
1643384419366,20768.5844328,494
1643384419366,20768.5844378,494
1643384419366,20768.5844408,473
1643384419366,20768.5844439,438
1643384419366,20768.5844489,367
1643384419366,20768.5844519,258
1643384419366,20769.2325493,149
1643384419366,20769.2325713,49
1643384419395,20769.2325782,-42
1643384419395,20769.2325816,-113
1643384419395,20769.2325867,-168
1643384419395,20769.2325904,-213
1643384419395,20769.2325953,-239
1643384419395,20769.2325981,-241
1643384419395,20769.2326011,-239
1643384419395,20769.2326048,-232
1643384419395,20769.2326077,-227
1643384419395,20769.2326124,-229
1643384419422,20769.2326153,-220
1643384419422,20769.2326182,-198
1643384419422,20769.232622,-184
1643384419422,20769.2326249,-177
1643384419422,20769.2326278,-165
1643384419422,20769.2326318,-144
1643384419422,20769.2326359,-118
1643384419422,20769.2326387,-101
1643384419422,20769.2326414,-92
1643384419422,20769.2326444,-82
1643384419458,20769.2326472,-71
1643384419458,20769.2326502,-59
1643384419458,20769.232653,-59
1643384419458,20769.2326559,-59
1643384419458,20769.2326588,-59
1643384419458,20769.2326617,-73
1643384419458,20769.2326645,-82
1643384419458,20769.2326674,-78
1643384419458,20769.2326763,-71
1643384419458,20769.2326967,-75
1643384419493,20769.2327036,-89
1643384419493,20769.2327071,-89
1643384419493,20769.2327121,-71
1643384419493,20769.232715,-66
1643384419840,20769.2327188,-71
1643384419840,20769.2327217,-78
1643384419840,20769.2327246,-82
1643384419840,20769.2327272,-75
1643384419840,20769.2327299,-61
1643384419840,20769.2327326,-56
1643384419840,20769.2327353,-52
1643384419840,20769.232738,-37
1643384419840,20769.2327409,-42
1643384419840,20769.2327436,-47
1643384419875,20769.2327463,-47
1643384419875,20769.232749,-49
1643384419875,20769.2327517,-47
1643384419875,20769.2327592,-54
1643384419875,20769.2327619,-63
1643384419875,20769.2327664,-28
1643384419875,20769.2327695,30
1643384419875,20769.2327721,49
1643384419875,20769.2327748,37
1643384419875,20769.2327775,30
1643384419913,20769.2327804,18
1643384419913,20769.2327834,-7
1643384419913,20769.2327863,-16
1643384419913,20769.2327891,-16
1643384419913,20769.232792,-21
1643384419913,20769.2327949,-18
1643384419913,20769.2327977,-35
1643384419913,20769.2328012,-42
1643384419913,20769.2328041,153
1643384419913,20769.2328072,672
1643384419948,20769.2328126,1304
1643384419948,20769.2328156,1662
1643384419948,20769.2328184,1098
1643384419948,20769.2328213,-445
1643384419948,20769.2328264,-1288
1643384419948,20769.2328292,-689
1643384419948,20769.2328321,-158
1643384419948,20769.7846261,-182
1643384419948,20769.784645,-80
1643384419948,20769.7846493,35
1643384419990,20769.7846525,-11
1643384419990,20769.7846553,-14
1643384419990,20769.7846581,42
1643384419990,20769.784661,49
1643384419990,20769.7846638,47
1643384419990,20769.7846666,66
1643384419990,20769.7846694,68
1643384419990,20769.7846722,61
1643384419990,20769.784675,85
1643384419990,20769.7846777,120
1643384420027,20769.7846804,139
1643384420027,20769.7846831,156
1643384420027,20769.7846859,182
1643384420027,20769.7846887,198
1643384420027,20769.7846914,215
1643384420027,20769.7846941,253
1643384420027,20769.7846969,296
1643384420027,20769.7846996,338
1643384420027,20769.7847023,374
1643384420027,20769.784705,390
1643384420066,20769.7847077,400
1643384420066,20769.7847105,404
1643384420066,20769.7847133,390
1643384420066,20769.784716,348
1643384420066,20769.7847188,286
1643384420066,20769.7847215,206
1643384420066,20769.7847242,101
1643384420066,20769.784727,-2
1643384420066,20769.7847298,-82
1643384420066,20769.7847325,-142
1643384420108,20769.7847353,-182
1643384420108,20769.784738,-203
1643384420108,20769.7847408,-217
1643384420108,20769.7847436,-227
1643384420403,20769.7847463,-227
1643384420403,20769.7847491,-224
1643384420403,20769.7847518,-227
1643384420403,20769.7847546,-220
1643384420403,20769.7847577,-203
1643384420403,20769.7847605,-196
1643384420403,20769.7847633,-187
1643384420403,20769.7847661,-170
1643384420403,20769.7847689,-156
1643384420403,20769.7847716,-142
1643384420445,20769.7847756,-123
1643384420445,20769.7847785,-101
1643384420445,20769.7847817,-92
1643384420445,20769.7847845,-87
1643384420445,20769.7847874,-75
1643384420445,20769.7847917,-66
1643384420445,20769.7847947,-63
1643384420445,20769.7847974,-61
1643384420445,20769.7848002,-56
1643384420445,20769.784803,-61
1643384420491,20769.7848058,-68
1643384420491,20769.7848283,-68
1643384420491,20769.7848468,-63
1643384420491,20769.7848588,-61
1643384420491,20769.7848629,-68
1643384420491,20769.7848659,-71
1643384420491,20769.7848687,-66
1643384420491,20769.7848715,-59
1643384420491,20769.7848743,-54
1643384420491,20769.784877,-49
1643384420534,20769.7848797,-49
1643384420534,20769.7848824,-52
1643384420534,20769.7848851,-49
1643384420534,20769.7848878,-44
1643384420534,20769.7848905,-40
1643384420534,20769.7848932,-37
1643384420534,20770.3340186,-37
1643384420534,20770.3340308,-35
1643384420534,20770.3340345,-30
1643384420534,20770.3340395,-28
1643384420578,20770.3340425,-23
1643384420578,20770.3340471,-21
1643384420578,20770.3340508,-21
1643384420578,20770.3340556,-26
1643384420578,20770.3340602,-23
1643384420578,20770.3340648,-16
1643384420578,20770.3340676,-14
1643384420578,20770.3340709,-9
1643384420578,20770.3340754,-9
1643384420578,20770.3340783,-16
1643384420624,20770.3340812,-35
1643384420624,20770.3340841,-59
1643384420624,20770.334087,-68
1643384420624,20770.3340899,-56
1643384420624,20770.3340928,-47
1643384420624,20770.3340956,-42
1643384420624,20770.3340985,-37
1643384420624,20770.3341013,-37
1643384420624,20770.3341042,-37
1643384420624,20770.3341071,-30
1643384420667,20770.33411,-23
1643384420667,20770.3341139,-23
1643384420667,20770.3341169,-18
1643384420667,20770.3341197,-18
1643384420667,20770.3341236,-18
1643384420667,20770.3341265,-9
1643384420667,20770.3341294,-4
1643384420667,20770.3341323,-9
1643384420667,20770.3341352,-4
1643384420667,20770.33414,0
1643384420712,20770.3341428,-4
1643384420712,20770.3341457,-2
1643384420712,20770.3341485,4
1643384420712,20770.3341514,4
1643384420955,20770.3341543,7
1643384420955,20770.3341572,14
1643384420955,20770.3341599,18
1643384420955,20770.3341625,11
1643384420955,20770.3341653,9
1643384420955,20770.3341679,14
1643384420955,20770.3341706,21
1643384420955,20770.3341734,21
1643384420955,20770.334176,21
1643384420955,20770.3341787,23
1643384420996,20770.3341814,21
1643384420996,20770.3341841,4
1643384420996,20770.3341868,0
1643384420996,20770.3341895,11
1643384420996,20770.3341925,23
1643384420996,20770.3341953,42
1643384420996,20770.3341982,73
1643384420996,20770.334201,85
1643384420996,20770.3342039,68
1643384420996,20770.3342067,56
1643384421039,20770.3342096,59
1643384421039,20770.3342135,44
1643384421039,20770.3342164,33
1643384421039,20770.3342193,37
1643384421039,20770.3342222,35
1643384421039,20770.3342259,28
1643384421039,20770.3342288,14
1643384421039,20770.3342335,-11
1643384421039,20770.3342363,42
1643384421039,20770.3342391,378
1643384421084,20770.3342419,996
1643384421084,20770.3342446,1612
1643384421084,20770.3342474,1695
1643384421084,20770.33425,596
1643384421084,20770.3342528,-923
1643384421084,20770.8819871,-1098
1643384421084,20770.8819994,-357
1643384421084,20770.8820046,-142
1643384421084,20770.8820097,-184
1643384421084,20770.8820135,-35
1643384421129,20770.8820183,-4
1643384421129,20770.8820228,-71
1643384421129,20770.8820275,-37
1643384421129,20770.8820323,4
1643384421129,20770.8820375,0
1643384421129,20770.8820407,14
1643384421129,20770.8820436,40
1643384421129,20770.8820485,40
1643384421129,20770.8820513,30
1643384421129,20770.8820544,33
1643384421173,20770.8820592,54
1643384421173,20770.8820621,87
1643384421173,20770.8820652,111
1643384421173,20770.88207,137
1643384421173,20770.882075,172
1643384421173,20770.882079,208
1643384421173,20770.882082,251
1643384421173,20770.882085,298
1643384421173,20770.8820879,341
1643384421173,20770.8820908,374
1643384421217,20770.8820942,400
1643384421217,20770.8820988,419
1643384421217,20770.8821035,426
1643384421217,20770.8821083,419
1643384421217,20770.8821127,390
1643384421217,20770.8821176,348
1643384421217,20770.8821205,281
1643384421217,20770.8821235,198
1643384421217,20770.8821276,108
1643384421217,20770.8821306,28
1643384421261,20770.8821335,-47
1643384421261,20770.8821366,-111
1643384421261,20770.8821415,-142
1643384421261,20770.8821444,-161
1643384421440,20770.8821474,-184
1643384421440,20770.8821504,-191
1643384421440,20770.8821532,-187
1643384421440,20770.882156,-184
1643384421440,20770.8821588,-182
1643384421440,20770.8821616,-172
1643384421440,20770.8821644,-165
1643384421440,20770.8821672,-158
1643384421440,20770.88217,-144
1643384421440,20770.8821728,-132
1643384421487,20770.8821756,-127
1643384421487,20770.8821784,-113
1643384421487,20770.8821812,-87
1643384421487,20770.8821842,-78
1643384421487,20770.8821872,-75
1643384421487,20770.8821902,-63
1643384421487,20770.8821932,-49
1643384421487,20770.8821961,-49
1643384421487,20770.8822004,-47
1643384421487,20770.8822035,-35
1643384421532,20770.8822087,-40
1643384421532,20770.8822118,-59
1643384421532,20770.8822165,-61
1643384421532,20770.8822194,-54
1643384421532,20770.8822225,-52
1643384421532,20770.8822273,-56
1643384421532,20770.8822302,-66
1643384421532,20770.8822332,-66
1643384421532,20770.8822361,-52
1643384421532,20770.8822388,-56
1643384421578,20770.8822416,-68
1643384421578,20770.8822445,-61
1643384421578,20770.8822473,-59
1643384421578,20770.88225,-63
1643384421578,20771.3840972,-63
1643384421578,20771.3841095,-56
1643384421578,20771.3841129,-49
1643384421578,20771.3841159,-54
1643384421578,20771.3841186,-61
1643384421578,20771.3841213,-71
1643384421628,20771.3841241,-68
1643384421628,20771.3841267,-56
1643384421628,20771.3841296,-54
1643384421628,20771.3841338,-59
1643384421628,20771.3841368,-56
1643384421628,20771.3841411,-52
1643384421628,20771.3841459,-61
1643384421628,20771.3841497,-73
1643384421628,20771.3841544,-66
1643384421628,20771.3841573,-54
1643384421673,20771.3841602,-47
1643384421673,20771.3841649,-44
1643384421673,20771.3841696,-54
1643384421673,20771.3841743,-49
1643384421673,20771.3841771,-35
1643384421673,20771.38418,-37
1643384421673,20771.3841848,-42
1643384421673,20771.3841895,-37
1643384421673,20771.3841941,-37
1643384421673,20771.3841985,-40
1643384421724,20771.3842031,-40
1643384421724,20771.3842077,-33
1643384421724,20771.3842122,-28
1643384421724,20771.3842153,-40
1643384421724,20771.3842201,-44
1643384421724,20771.3842243,-37
1643384421724,20771.3842293,-33
1643384421724,20771.3842322,-33
1643384421724,20771.3842349,-30
1643384421724,20771.3842376,-28
1643384421762,20771.3842403,-28
1643384421762,20771.3842429,-30
1643384421762,20771.3842456,-35
1643384421762,20771.3842486,-35
1643384422111,20771.3842515,-40
1643384422111,20771.3842544,-35
1643384422111,20771.3842571,-7
1643384422111,20771.3842598,30
1643384422111,20771.3842626,54
1643384422111,20771.3842653,44
1643384422111,20771.384268,28
1643384422111,20771.3842706,21
1643384422111,20771.3842733,11
1643384422111,20771.384276,0
1643384422156,20771.3842786,-4
1643384422156,20771.3842813,-9
1643384422156,20771.3842839,-14
1643384422156,20771.3842867,-30
1643384422156,20771.3842893,-40
1643384422156,20771.384292,30
1643384422156,20771.3842948,314
1643384422156,20771.3842977,847
1643384422156,20771.3843017,1425
1643384422156,20771.3843046,1577
1643384422199,20771.3843077,632
1643384422199,20771.3843125,-854
1643384422199,20771.3843153,-1141
1643384422199,20771.3843183,-423
1643384422199,20771.3843229,-163
1643384422199,20771.3843276,-184
1643384422199,20771.3843322,-26
1643384422199,20771.3843513,4
1643384422199,20771.3843559,-42
1643384422199,20771.3843588,7
1643384422245,20771.3843626,33
1643384422245,20771.3843674,18
1643384422245,20771.3843706,40
1643384422245,20772.0314026,56
1643384422245,20772.0314143,47
1643384422245,20772.0314188,59
1643384422245,20772.0314259,75
1643384422245,20772.031429,89
1643384422245,20772.0314343,120
1643384422245,20772.0314372,139
1643384422289,20772.0314402,153
1643384422289,20772.0314432,203
1643384422289,20772.0314471,243
1643384422289,20772.0314501,260
1643384422289,20772.031454,303
1643384422289,20772.0314569,362
1643384422289,20772.0314598,407
1643384422289,20772.0314626,435
1643384422289,20772.0314653,442
1643384422289,20772.031468,423
1643384422336,20772.0314707,407
1643384422336,20772.0314734,386
1643384422336,20772.0314761,336
1643384422336,20772.0314788,274
1643384422336,20772.0314815,196
1643384422336,20772.0314842,80
1643384422336,20772.0314869,-18
1643384422336,20772.0314896,-75
1643384422336,20772.0314923,-123
1643384422336,20772.031495,-170
1643384422380,20772.0314979,-191
1643384422380,20772.0315006,-179
1643384422380,20772.0315033,-170
1643384422380,20772.0315066,-187
1643384422380,20772.0315093,-198
1643384422380,20772.031512,-191
1643384422380,20772.0315147,-191
1643384422380,20772.0315174,-179
1643384422380,20772.0315201,-149
1643384422380,20772.0315228,-139
1643384422428,20772.0315255,-144
1643384422428,20772.0315282,-123
1643384422428,20772.0315309,-99
1643384422428,20772.0315336,-94
1643384422660,20772.0315363,-85
1643384422660,20772.0315391,-68
1643384422660,20772.0315418,-75
1643384422660,20772.0315444,-85
1643384422660,20772.0315471,-78
1643384422660,20772.0315498,-61
1643384422660,20772.0315525,-37
1643384422660,20772.031556,-23
1643384422660,20772.0315587,-37
1643384422660,20772.0315614,-78
1643384422710,20772.0315641,-80
1643384422710,20772.0315669,-30
1643384422710,20772.0315696,-11
1643384422710,20772.0315723,-47
1643384422710,20772.031575,-71
1643384422710,20772.0315777,-68
1643384422710,20772.0315804,-85
1643384422710,20772.0315832,-111
1643384422710,20772.0315859,-101
1643384422710,20772.0315886,-82
1643384422748,20772.0315913,-106
1643384422748,20772.0315944,-127
1643384422748,20772.031598,-82
1643384422748,20772.0316007,-35
1643384422748,20772.0316036,-56
1643384422748,20772.0316065,-73
1643384422748,20772.0316092,-56
1643384422748,20772.031612,-71
1643384422748,20772.0316147,-101
1643384422748,20772.0316174,-87
1643384422791,20772.0316204,-26
1643384422791,20772.0316232,-14
1643384422791,20772.5847495,-61
1643384422791,20772.5847629,-59
1643384422791,20772.5847682,-40
1643384422791,20772.5847733,-99
1643384422791,20772.5847762,-118
1643384422791,20772.5847793,-40
1643384422791,20772.5847833,-7
1643384422791,20772.5847864,-49
1643384422832,20772.5847902,-54
1643384422832,20772.5847941,-11
1643384422832,20772.5847971,4
1643384422832,20772.5848012,-33
1643384422832,20772.5848041,-92
1643384422832,20772.5848077,-85
1643384422832,20772.5848123,-14
1643384422832,20772.5848153,-16
1643384422832,20772.5848183,-87
1643384422832,20772.5848212,-73
1643384422875,20772.5848241,14
1643384422875,20772.5848272,26
1643384422875,20772.5848321,-44
1643384422875,20772.5848351,-85
1643384422875,20772.584838,-63
1643384422875,20772.584842,-11
1643384422875,20772.5848448,21
1643384422875,20772.5848477,2
1643384422875,20772.5848506,-4
1643384422875,20772.5848535,26
1643384422919,20772.5848564,21
1643384422919,20772.5849086,-9
1643384422919,20772.5849157,-16
1643384422919,20772.5849189,-7
1643384422919,20772.5849235,-16
1643384422919,20772.5849282,-33
1643384422919,20772.5849328,-14
1643384422919,20772.5849377,35
1643384422919,20772.5849424,85
1643384422919,20772.5849463,101
1643384422961,20772.5849493,47
1643384422961,20772.5849542,-21
1643384422961,20772.5849588,-11
1643384422961,20772.5849638,59
1643384423179,20772.5849669,82
1643384423179,20772.5849698,33
1643384423179,20772.5849726,2
1643384423179,20772.5849754,18
1643384423179,20772.5849782,11
1643384423179,20772.584981,-18
1643384423179,20772.5849838,94
1643384423179,20772.5849866,547
1643384423179,20772.5849894,1212
1643384423179,20772.5849922,1669
1643384423226,20772.584995,1342
1643384423226,20772.5849977,-59
1643384423226,20772.5850007,-1203
1643384423226,20772.5850034,-840
1643384423226,20772.5850062,-196
1643384423226,20772.585009,-175
1643384423226,20772.5850118,-75
1643384423226,20772.5850146,111
1643384423226,20772.5850173,44
1643384423226,20772.585021,-4
1643384423268,20772.5850238,44
1643384423268,20772.5850266,23
1643384423268,20772.5850294,18
1643384423268,20772.5850322,66
1643384423268,20772.585035,56
1643384423268,20772.5850378,52
1643384423268,20772.5850405,151
1643384423268,20772.5850433,227
1643384423268,20772.5850461,161
1643384423268,20772.585049,144
1643384423317,20772.5850521,224
1643384423317,20773.1347885,243
1643384423317,20773.1348019,246
1643384423317,20773.1348055,331
1643384423317,20773.1348087,390
1643384423317,20773.1348128,378
1643384423317,20773.1348158,388
1643384423317,20773.1348208,433
1643384423317,20773.1348245,480
1643384423317,20773.1348291,544
1643384423360,20773.134832,565
1643384423360,20773.1348349,499
1643384423360,20773.1348399,426
1643384423360,20773.134844,367
1643384423360,20773.1348471,284
1643384423360,20773.13485,158
1643384423360,20773.1348534,4
1643384423360,20773.1348563,-104
1643384423360,20773.1348613,-161
1643384423360,20773.134864,-191
1643384423405,20773.1348669,-196
1643384423405,20773.1348698,-220
1643384423405,20773.1348727,-293
1643384423405,20773.1348755,-350
1643384423405,20773.1348784,-300
1643384423405,20773.1348813,-239
1643384423405,20773.1348841,-286
1643384423405,20773.134887,-324
1643384423405,20773.13489,-255
1643384423405,20773.1348928,-184
1643384423451,20773.1348957,-170
1643384423451,20773.1348986,-175
1643384423451,20773.1349015,-172
1643384423451,20773.1349047,-156
1643384423451,20773.1349092,-137
1643384423451,20773.1349138,-130
1643384423451,20773.1349184,-127
1643384423451,20773.134923,-108
1643384423451,20773.1349277,-66
1643384423451,20773.1349306,-44
1643384423494,20773.1349335,-75
1643384423494,20773.1349364,-120
1643384423494,20773.1349393,-106
1643384423494,20773.1349421,-52
1643384423801,20773.134945,-59
1643384423801,20773.1349478,-111
1643384423801,20773.1349506,-120
1643384423801,20773.1349533,-85
1643384423801,20773.134956,-68
1643384423801,20773.1349588,-94
1643384423801,20773.1349615,-132
1643384423801,20773.134969,-149
1643384423801,20773.1349717,-106
1643384423801,20773.1349745,-35
1643384423841,20773.1349772,-23
1643384423841,20773.134982,-75
1643384423841,20773.1349871,-80
1643384423841,20773.1349934,-49
1643384423841,20773.1349964,-80
1643384423841,20773.1349992,-120
1643384423841,20773.1350019,-78
1643384423841,20773.1350048,-14
1643384423841,20773.1350078,-16
1643384423841,20773.1350133,-54
1643384423884,20773.1350161,-61
1643384423884,20773.135019,-52
1643384423884,20773.1350219,-59
1643384423884,20773.1350247,-104
1643384423884,20773.1350276,-118
1643384423884,20773.1350305,-18
1643384423884,20773.1350333,66
1643384423884,20773.1350363,9
1643384423884,20773.1350404,-28
1643384423884,20773.1350434,7
1643384423928,20773.7341591,-21
1643384423928,20773.7341743,-49
1643384423928,20773.7341781,-2
1643384423928,20773.7341831,26
1643384423928,20773.7341862,4
1643384423928,20773.7341907,9
1643384423928,20773.7341955,14
1643384423928,20773.7342003,-26
1643384423928,20773.7342046,-49
1643384423928,20773.7342093,-33
1643384423973,20773.7342138,-7
1643384423973,20773.7342184,26
1643384423973,20773.7342228,37
1643384423973,20773.7342274,-28
1643384423973,20773.7342302,-116
1643384423973,20773.7342331,-120
1643384423973,20773.734236,-49
1643384423973,20773.734239,16
1643384423973,20773.7342427,44
1643384423973,20773.7342457,80
1643384424015,20773.7342504,78
1643384424015,20773.7342531,7
1643384424015,20773.734256,-35
1643384424015,20773.7342589,-14
1643384424015,20773.7342618,4
1643384424015,20773.7342647,-18
1643384424015,20773.7342676,-40
1643384424015,20773.7342705,-18
1643384424015,20773.7342734,47
1643384424015,20773.7342763,288
1643384424062,20773.734281,838
1643384424062,20773.7342854,1508
1643384424062,20773.7342883,1693
1643384424062,20773.7342911,627
1643384424062,20773.734294,-987
1643384424062,20773.7342988,-1236
1643384424062,20773.7343026,-423
1643384424062,20773.7343056,-163
1643384424062,20773.7343095,-201
1643384424062,20773.7343134,30
1643384424105,20773.7343164,108
1643384424105,20773.7343201,-26
1643384424105,20773.7343231,-14
1643384424105,20773.7343269,73
1643384424326,20773.7343299,68
1643384424326,20773.7343328,35
1643384424326,20773.7343356,30
1643384424326,20773.7343383,47
1643384424326,20773.7343411,85
1643384424326,20773.7343438,80
1643384424326,20773.7343465,33
1643384424326,20773.7343492,106
1643384424326,20773.7343519,269
1643384424326,20773.7343547,269
1643384424369,20773.7343574,156
1643384424369,20773.7343601,220
1643384424369,20773.7343628,419
1643384424369,20773.734367,487
1643384424369,20773.7343699,464
1643384424369,20773.7343728,466
1643384424369,20773.7343758,447
1643384424369,20773.7343808,478
1643384424369,20773.7343854,615
1643384424369,20773.7343901,663
1643384424413,20773.7343947,542
1643384424413,20773.7343985,407
1643384424413,20773.7344014,291
1643384424413,20773.7344043,189
1643384424413,20773.7344071,161
1643384424413,20773.7344111,101
1643384424413,20773.734414,-49
1643384424413,20773.7344168,-132
1643384424413,20773.7344198,-125
1643384424413,20774.2847239,-139
1643384424458,20774.2847364,-177
1643384424458,20774.2847402,-163
1643384424458,20774.2847455,-156
1643384424458,20774.2847487,-179
1643384424458,20774.2847536,-151
1643384424458,20774.2847567,-118
1643384424458,20774.2847617,-187
1643384424458,20774.2847648,-246
1643384424458,20774.2847697,-172
1643384424458,20774.2847727,-116
1643384424502,20774.2847776,-99
1643384424502,20774.2847807,-68
1643384424502,20774.2847836,-187
1643384424502,20774.2847867,-265
1643384424502,20774.2847916,-40
1643384424502,20774.2847947,82
1643384424502,20774.2847994,-149
1643384424502,20774.2848024,-232
1643384424502,20774.2848054,-28
1643384424502,20774.2848084,-28
1643384424547,20774.2848132,-142
1643384424547,20774.2848163,-26
1643384424547,20774.2848192,16
1643384424547,20774.2848221,-125
1643384424547,20774.284825,-132
1643384424547,20774.284828,-66
1643384424547,20774.284831,-68
1643384424547,20774.284836,-85
1643384424547,20774.284839,-153
1643384424547,20774.2848432,-179
1643384424594,20774.2848461,-59
1643384424594,20774.284849,-85
1643384424594,20774.284852,-236
1643384424594,20774.2848551,-116
1643384424594,20774.28486,26
1643384424594,20774.2848631,-116
1643384424594,20774.284868,-153
1643384424594,20774.2848711,-21
1643384424594,20774.284874,-33
1643384424594,20774.2848801,-120
1643384424637,20774.2848831,-120
1643384424637,20774.284888,-68
1643384424637,20774.284891,-35
1643384424637,20774.284894,-82
1643384424849,20774.284897,-191
1643384424849,20774.2848999,-165
1643384424849,20774.2849027,56
1643384424849,20774.2849055,139
1643384424849,20774.2849084,-11
1643384424849,20774.2849112,-85
1643384424849,20774.2849139,-37
1643384424849,20774.2849167,-40
1643384424849,20774.2849194,-66
1643384424849,20774.2849222,-108
1643384424892,20774.284925,-94
1643384424892,20774.2849279,68
1643384424892,20774.2849307,123
1643384424892,20774.2849335,-16
1643384424892,20774.2849362,-66
1643384424892,20774.284939,-30
1643384424892,20774.2849417,-56
1643384424892,20774.2849445,-59
1643384424892,20774.2849473,56
1643384424892,20774.2849502,175
1643384424936,20774.284953,161
1643384424936,20774.2849558,56
1643384424936,20774.2849586,-26
1643384424936,20774.2849615,-68
1643384424936,20774.2849645,-73
1643384424936,20774.2849675,0
1643384424936,20774.2849705,92
1643384424936,20774.2849734,78
1643384424936,20774.7847997,16
1643384424936,20774.7848144,26
1643384424977,20774.7848194,21
1643384424977,20774.784825,-44
1643384424977,20774.7848285,168
1643384424977,20774.7848334,871
1643384424977,20774.7848365,1515
1643384424977,20774.7848412,1432
1643384424977,20774.7848442,419
1643384424977,20774.7848497,-907
1643384424977,20774.7848527,-1207
1643384424977,20774.7848575,-592
1643384425021,20774.7848606,-217
1643384425021,20774.7848654,-18
1643384425021,20774.7848684,163
1643384425021,20774.7848714,73
1643384425021,20774.7848743,-14
1643384425021,20774.7848773,78
1643384425021,20774.7848803,99
1643384425021,20774.7848833,23
1643384425021,20774.7848862,28
1643384425021,20774.7848892,87
1643384425068,20774.7848922,94
1643384425068,20774.7848954,125
1643384425068,20774.7849009,201
1643384425068,20774.7849039,179
1643384425068,20774.7849093,52
1643384425068,20774.7849123,44
1643384425068,20774.7849172,269
1643384425068,20774.7849203,386
1643384425068,20774.7849252,286
1643384425068,20774.7849282,326
1643384425111,20774.7849338,447
1643384425111,20774.7849368,433
1643384425111,20774.7849416,442
1643384425111,20774.7849447,509
1643384425111,20774.7849496,485
1643384425111,20774.7849527,464
1643384425111,20774.7849576,523
1643384425111,20774.784961,499
1643384425111,20774.7850145,364
1643384425111,20774.7850222,246
1643384425154,20774.7850254,163
1643384425154,20774.7850303,104
1643384425154,20774.7850334,71
1643384425154,20774.7850395,18
1643384425467,20774.7850432,-123
1643384425467,20774.7850466,-281
1643384425467,20774.7850498,-277
1643384425467,20774.7850526,-222
1643384425467,20774.7850554,-277
1643384425467,20774.7850582,-251
1643384425467,20774.7850611,-85
1643384425467,20774.7850638,-42
1643384425467,20774.7850666,-161
1643384425467,20774.7850694,-239
1643384425513,20774.7850721,-241
1643384425513,20774.7850749,-206
1643384425513,20774.7850776,-125
1643384425513,20774.7850804,-71
1643384425513,20774.7850832,-94
1643384425513,20774.785086,-111
1643384425513,20774.7850888,-52
1643384425513,20774.7850916,-18
1643384425513,20774.7850943,-116
1643384425513,20774.7850971,-220
1643384425558,20774.7851005,-108
1643384425558,20774.7851033,44
1643384425558,20774.7851061,-4
1643384425558,20774.7851089,-33
1643384425558,20774.7851117,21
1643384425558,20774.7851145,-75
1643384425558,20774.7851174,-177
1643384425558,20775.3841213,-108
1643384425558,20775.3841342,-63
1643384425558,20775.3841396,-104
1643384425606,20775.3841451,-75
1643384425606,20775.3841481,-18
1643384425606,20775.3841511,-35
1643384425606,20775.3841541,-80
1643384425606,20775.3841591,-137
1643384425606,20775.3841637,-165
1643384425606,20775.3841689,-113
1643384425606,20775.3841721,-97
1643384425606,20775.384177,-134
1643384425606,20775.3841799,-125
1643384425654,20775.3841829,-116
1643384425654,20775.3841868,-125
1643384425654,20775.3841899,-78
1643384425654,20775.3841946,-73
1643384425654,20775.3841993,-151
1643384425654,20775.3842041,-127
1643384425654,20775.3842073,-26
1643384425654,20775.3842104,-71
1643384425654,20775.3842152,-151
1643384425654,20775.3842197,-82
1643384425703,20775.3842244,-23
1643384425703,20775.3842291,-52
1643384425703,20775.384234,-68
1643384425703,20775.384237,-99
1643384425703,20775.3842425,-142
1643384425703,20775.3842689,-73
1643384425703,20775.384277,14
1643384425703,20775.3842806,-7
1643384425703,20775.3842838,-42
1643384425703,20775.3842867,-7
1643384425748,20775.3842895,9
1643384425748,20775.3842923,-66
1643384425748,20775.3842951,-118
1643384425748,20775.3842979,-75
1643384425748,20775.3843007,-44
1643384425748,20775.3843035,-2
1643384425748,20775.3843064,73
1643384425748,20775.3843091,30
1643384425748,20775.3843119,-54
1643384425748,20775.3843147,-18
1643384425793,20775.3843175,28
1643384425793,20775.3843203,-16
1643384425793,20775.3843231,-61
1643384425793,20775.3843258,-37
1643384425989,20775.3843286,16
1643384425989,20775.3843314,85
1643384425989,20775.3843341,118
1643384425989,20775.3843369,73
1643384425989,20775.3843397,16
1643384425989,20775.3843425,7
1643384425989,20775.3843453,33
1643384425989,20775.3843481,54
1643384425989,20775.3843509,44
1643384425989,20775.3843539,21
1643384426029,20775.3843566,11
1643384426029,20775.3843595,14
1643384426029,20775.3843622,-7
1643384426029,20775.384365,-66
1643384426029,20775.3843678,-21
1643384426029,20775.3843706,317
1643384426029,20775.3843738,869
1643384426029,20775.3843773,1430
1643384426029,20775.3843803,1643
1643384426029,20775.3843831,793
1643384426069,20775.3843859,-779
1643384426069,20775.3843887,-1278
1643384426069,20775.3843915,-568
1643384426069,20775.3843943,-215
1643384426069,20775.3843971,-234
1643384426069,20775.3843999,2
1643384426069,20775.9339924,120
1643384426069,20775.9340025,4
1643384426069,20775.9340058,16
1643384426069,20775.9340087,106
1643384426104,20775.9340115,94
1643384426104,20775.934015,49
1643384426104,20775.9340178,40
1643384426104,20775.9340207,92
1643384426104,20775.9340236,163
1643384426104,20775.9340264,146
1643384426104,20775.9340293,120
1643384426104,20775.9340322,182
1643384426104,20775.9340351,224
1643384426104,20775.934038,187
1643384426140,20775.9340409,179
1643384426140,20775.9340438,258
1643384426140,20775.9340468,352
1643384426140,20775.9340506,397
1643384426140,20775.9340534,412
1643384426140,20775.9340561,438
1643384426140,20775.9340589,494
1643384426140,20775.9340616,554
1643384426140,20775.9340643,582
1643384426140,20775.934067,573
1643384426175,20775.9340697,542
1643384426175,20775.9340724,454
1643384426175,20775.9340752,288
1643384426175,20775.9340779,156
1643384426175,20775.9340806,87
1643384426175,20775.9340833,-4
1643384426175,20775.934086,-71
1643384426175,20775.9340889,-108
1643384426175,20775.9340915,-175
1643384426175,20775.9340942,-196
1643384426211,20775.934097,-234
1643384426211,20775.9341143,-284
1643384426211,20775.9341176,-210
1643384426211,20775.9341217,-170
1643384426211,20775.9341246,-251
1643384426211,20775.9341283,-274
1643384426211,20775.9341311,-203
1643384426211,20775.934134,-139
1643384426211,20775.9341367,-168
1643384426211,20775.9341395,-243
1643384426245,20775.9341423,-206
1643384426245,20775.9341452,-89
1643384426245,20775.934148,-82
1643384426245,20775.9341509,-149
1643384426533,20775.9341537,-151
1643384426533,20775.9341565,-116
1643384426533,20775.9341592,-63
1643384426533,20775.934162,0
1643384426533,20775.9341649,-47
1643384426533,20775.9341676,-170
1643384426533,20775.9341703,-146
1643384426533,20775.934173,-30
1643384426533,20775.9341757,-59
1643384426533,20775.9341784,-153
1643384426572,20775.9341811,-106
1643384426572,20775.934184,-4
1643384426572,20775.9341866,-7
1643384426572,20775.9341893,-82
1643384426572,20775.9341925,-120
1643384426572,20775.9341952,-94
1643384426572,20775.9341979,-66
1643384426572,20775.9342006,-61
1643384426572,20775.9342033,-61
1643384426572,20775.9342061,-85
1643384426613,20775.9342087,-101
1643384426613,20775.9342115,-87
1643384426613,20775.9342142,-99
1643384426613,20775.9342169,-116
1643384426613,20775.9342197,-82
1643384426613,20776.4840666,-47
1643384426613,20776.4840792,-47
1643384426613,20776.4840829,-44
1643384426613,20776.4840879,-35
1643384426613,20776.484093,-68
1643384426649,20776.4840977,-139
1643384426649,20776.4841005,-158
1643384426649,20776.4841035,-75
1643384426649,20776.4841075,-7
1643384426649,20776.4841104,-33
1643384426649,20776.4841134,-61
1643384426649,20776.4841163,-35
1643384426649,20776.4841192,-47
1643384426649,20776.4841221,-146
1643384426649,20776.4841251,-206
1643384426688,20776.484128,-113
1643384426688,20776.4841309,-2
1643384426688,20776.4841339,-30
1643384426688,20776.4841369,-80
1643384426688,20776.4841398,-42
1643384426688,20776.4841427,-14
1643384426688,20776.4841457,-37
1643384426688,20776.4841486,-78
1643384426688,20776.4841516,-123
1643384426688,20776.4841545,-99
1643384426722,20776.4841576,4
1643384426722,20776.4841606,47
1643384426722,20776.4841635,44
1643384426722,20776.4841664,54
1643384426722,20776.4841693,54
1643384426722,20776.4841723,71
1643384426722,20776.4841752,73
1643384426722,20776.4841781,4
1643384426722,20776.4842765,-37
1643384426722,20776.484283,26
1643384426756,20776.4842861,113
1643384426756,20776.48429,82
1643384426756,20776.484293,-52
1643384426756,20776.484297,-134
1643384426756,20776.4843,-99
1643384426756,20776.4843039,120
1643384426756,20776.484307,584
1643384426756,20776.4843123,1122
1643384426756,20776.4843171,1584
1643384426756,20776.4843219,1503
1643384426793,20776.4843249,146
1643384426793,20776.4843279,-1330
1643384426793,20776.484332,-1124
1643384426793,20776.4843351,-222
1643384427089,20776.4843389,-73
1643384427089,20776.4843418,-158
1643384427089,20776.4843447,-71
1643384427089,20776.4843475,-18
1643384427089,20776.4843503,14
1643384427089,20776.4843531,28
1643384427089,20776.4843559,9
1643384427089,20776.4843587,23
1643384427089,20776.4843615,35
1643384427089,20776.484377,85
1643384427133,20776.4843802,194
1643384427133,20776.4843831,198
1643384427133,20776.484386,120
1643384427133,20776.4843888,130
1643384427133,20776.4843916,161
1643384427133,20776.4843945,137
1643384427133,20776.4843976,170
1643384427133,20776.4844004,267
1643384427133,20776.4844032,367
1643384427133,20776.4844061,449
1643384427171,20776.484409,416
1643384427171,20776.4844118,336
1643384427171,20776.4844147,400
1643384427171,20776.4844175,544
1643384427171,20777.0341393,622
1643384427171,20777.034152,587
1643384427171,20777.0341553,502
1643384427171,20777.0341581,542
1643384427171,20777.0341609,599
1643384427171,20777.0341636,440
1643384427208,20777.0341664,179
1643384427208,20777.0341692,-42
1643384427208,20777.0341719,-127
1643384427208,20777.0341747,-71
1643384427208,20777.0341775,-151
1643384427208,20777.0341805,-331
1643384427208,20777.0341848,-253
1643384427208,20777.0341877,-66
1643384427208,20777.0341907,-127
1643384427208,20777.0341936,-352
1643384427247,20777.0341965,-449
1643384427247,20777.0341995,-253
1643384427247,20777.0342025,-14
1643384427247,20777.0342065,-73
1643384427247,20777.0342095,-203
1643384427247,20777.0342125,-127
1643384427247,20777.0342164,-66
1643384427247,20777.0342197,-203
1643384427247,20777.0342225,-298
1643384427247,20777.0342256,-191
1643384427289,20777.0342297,-68
1643384427289,20777.0342328,-37
1643384427289,20777.0342384,0
1643384427289,20777.0342413,47
1643384427289,20777.0342442,-52
1643384427289,20777.0342483,-255
1643384427289,20777.0342512,-255
1643384427289,20777.0342542,-49
1643384427289,20777.0342571,0
1643384427289,20777.0342601,-78
1643384427331,20777.034265,-89
1643384427331,20777.0342678,-99
1643384427331,20777.0342709,-113
1643384427331,20777.034275,-120
1643384427331,20777.034278,-123
1643384427331,20777.0342817,-21
1643384427331,20777.0342846,49
1643384427331,20777.0342886,-40
1643384427331,20777.0342916,-73
1643384427331,20777.0342963,-21
1643384427371,20777.0342991,-54
1643384427371,20777.0343021,-75
1643384427371,20777.0343069,-9
1643384427371,20777.0343098,-14
1643384427710,20777.0343127,-127
1643384427710,20777.0343212,-163
1643384427710,20777.034324,-28
1643384427710,20777.0343267,75
1643384427710,20777.0343294,-18
1643384427710,20777.0343322,-92
1643384427710,20777.0343684,-4
1643384427710,20777.0343762,56
1643384427710,20777.0343801,-35
1643384427710,20777.0343859,-182
1643384427747,20777.034389,-161
1643384427747,20777.0343939,42
1643384427747,20777.0343967,134
1643384427747,20777.0343996,26
1643384427747,20777.0344039,-63
1643384427747,20777.0344069,-63
1643384427747,20777.034414,-26
1643384427747,20777.0344311,7
1643384427747,20777.0344439,-7
1643384427747,20777.034455,-30
1643384427790,20777.0344583,-28
1643384427790,20777.0344721,-9
1643384427790,20777.0348728,23
1643384427790,20777.6284659,47
1643384427790,20777.6284782,-18
1643384427790,20777.6284835,-82
1643384427790,20777.6284885,9
1643384427790,20777.6284917,104
1643384427790,20777.6284955,68
1643384427790,20777.6284985,-21
1643384427828,20777.6285014,-127
1643384427828,20777.6285043,-123
1643384427828,20777.6285072,37
1643384427828,20777.62851,111
1643384427828,20777.6285129,82
1643384427828,20777.6285158,182
1643384427828,20777.6285187,168
1643384427828,20777.6285216,-80
1643384427828,20777.6285246,-165
1643384427828,20777.6285294,-78
1643384427871,20777.6285338,-87
1643384427871,20777.6285387,-56
1643384427871,20777.6285425,116
1643384427871,20777.6285463,170
1643384427871,20777.628551,68
1643384427871,20777.6285537,246
1643384427871,20777.6285566,999
1643384427871,20777.6285596,1776
1643384427871,20777.6285625,1586
1643384427871,20777.6285654,163
1643384427916,20777.6285693,-1034
1643384427916,20777.6285721,-812
1643384427916,20777.628575,-329
1643384427916,20777.6285779,-305
1643384427916,20777.6285807,-89
1643384427916,20777.6285836,56
1643384427916,20777.6285865,-151
1643384427916,20777.6285904,-113
1643384427916,20777.6285933,191
1643384427916,20777.6285982,227
1643384427958,20777.6286028,37
1643384427958,20777.6286058,-16
1643384427958,20777.6286097,99
1643384427958,20777.6286126,194
1643384427958,20777.6286154,153
1643384427958,20777.6286184,87
1643384427958,20777.6286212,232
1643384427958,20777.6286242,416
1643384427958,20777.6286281,338
1643384427958,20777.628631,175
1643384428000,20777.6286357,189
1643384428000,20777.6286385,371
1643384428000,20777.6286414,518
1643384428000,20777.6286443,485
1643384428175,20777.6286472,433
1643384428175,20777.62865,518
1643384428175,20777.6286528,587
1643384428175,20777.6286555,504
1643384428175,20777.6286582,535
1643384428175,20777.6286609,722
1643384428175,20777.6286636,710
1643384428175,20777.6286664,471
1643384428175,20777.628669,277
1643384428175,20777.6286717,255
1643384428218,20777.6286744,279
1643384428218,20777.6286771,111
1643384428218,20777.6286798,-168
1643384428218,20777.6286826,-246
1643384428218,20777.6286853,-108
1643384428218,20777.6286881,-14
1643384428218,20777.628691,-134
1643384428218,20777.6286939,-291
1643384428218,20777.6286968,-208
1643384428218,20777.6286997,0
1643384428263,20777.6287027,23
1643384428263,20777.6287066,-177
1643384428263,20778.1342311,-246
1643384428263,20778.1342435,-78
1643384428263,20778.1342488,-33
1643384428263,20778.134253,-99
1643384428263,20778.1342561,-82
1643384428263,20778.1342591,-68
1643384428263,20778.1342621,-28
1643384428263,20778.1342656,4
1643384428306,20778.1342685,-116
1643384428306,20778.1342724,-146
1643384428306,20778.1342754,49
1643384428306,20778.1342795,42
1643384428306,20778.1342824,-213
1643384428306,20778.1342865,-144
1643384428306,20778.1342895,149
1643384428306,20778.1343114,61
1643384428306,20778.1343267,-203
1643384428306,20778.1343337,-82
1643384428345,20778.1343371,130
1643384428345,20778.1343417,7
1643384428345,20778.1343447,-134
1643384428345,20778.134349,-49
1643384428345,20778.1343519,56
1643384428345,20778.1343549,42
1643384428345,20778.1343595,-61
1643384428345,20778.1343625,-111
1643384428345,20778.1343666,-37
1643384428345,20778.1343856,11
1643384428387,20778.134395,-14
1643384428387,20778.1343988,-54
1643384428387,20778.1344019,-49
1643384428387,20778.1344073,75
1643384428387,20778.1344105,161
1643384428387,20778.1344152,42
1643384428387,20778.13442,-125
1643384428387,20778.1344251,-94
1643384428387,20778.1344281,33
1643384428387,20778.1344311,-4
1643384428427,20778.1344364,-80
1643384428427,20778.1344395,35
1643384428427,20778.1344443,165
1643384428427,20778.1344473,68
1643384428427,20778.1344521,-120
1643384428427,20778.1344566,-134
1643384428427,20778.1344613,-30
1643384428427,20778.1344647,11
1643384428427,20778.1344931,44
1643384428427,20778.1344958,68
1643384428468,20778.1344986,42
1643384428468,20778.1345013,59
1643384428468,20778.1345042,4
1643384428468,20778.1345072,-134
1643384428798,20778.1345111,-44
1643384428798,20778.134514,182
1643384428798,20778.1345167,146
1643384428798,20778.1345195,-54
1643384428798,20778.1345222,-78
1643384428798,20778.1345249,61
1643384428798,20778.1345276,116
1643384428798,20778.1345304,33
1643384428798,20778.1345331,-28
1643384428798,20778.1345358,21
1643384428834,20778.1345386,118
1643384428834,20778.1345413,158
1643384428834,20778.1345441,68
1643384428834,20778.1345469,-33
1643384428834,20778.1345496,18
1643384428834,20778.1345541,125
1643384428834,20778.134558,73
1643384428834,20778.134561,-116
1643384428834,20778.134566,-163
1643384428834,20778.1345697,42
1643384428871,20778.1345727,312
1643384428871,20778.7294898,679
1643384428871,20778.7295034,1300
1643384428871,20778.7295087,1792
1643384428871,20778.7295138,1200
1643384428871,20778.7295169,-480
1643384428871,20778.7295199,-1352
1643384428871,20778.7295247,-722
1643384428871,20778.7295294,-274
1643384428871,20778.7295341,-336
1643384428905,20778.7295371,-33
1643384428905,20778.7295421,227
1643384428905,20778.7295452,2
1643384428905,20778.7295499,-191
1643384428905,20778.7295542,-49
1643384428905,20778.7295589,94
1643384428905,20778.7295635,2
1643384428905,20778.7295682,-89
1643384428905,20778.7295728,75
1643384428905,20778.7295776,286
1643384428945,20778.7295822,234
1643384428945,20778.7295868,104
1643384428945,20778.7295915,187
1643384428945,20778.7295962,298
1643384428945,20778.7296005,175
1643384428945,20778.7296052,85
1643384428945,20778.7296097,239
1643384428945,20778.7296143,386
1643384428945,20778.7296173,416
1643384428945,20778.7296203,419
1643384428982,20778.7296254,423
1643384428982,20778.7296285,471
1643384428982,20778.729634,478
1643384428982,20778.7296387,461
1643384428982,20778.7296434,565
1643384428982,20778.7296481,637
1643384428982,20778.7296527,520
1643384428982,20778.7296581,329
1643384428982,20778.7296616,189
1643384428982,20778.7296645,120
1643384429020,20778.7296674,7
1643384429020,20778.7296703,-132
1643384429020,20778.7296731,-108
1643384429020,20778.729676,-47
1643384429020,20778.7296789,-189
1643384429020,20778.7296818,-352
1643384429020,20778.7296846,-206
1643384429020,20778.7296876,28
1643384429020,20778.7296904,-28
1643384429020,20778.7296935,-232
1643384429055,20778.7296965,-338
1643384429055,20778.7296997,-241
1643384429055,20778.729705,-28
1643384429055,20778.7297084,-4
1643384429439,20778.7297114,-222
1643384429439,20778.7297143,-331
1643384429439,20778.7297172,-116
1643384429439,20778.72972,63
1643384429439,20778.7297228,-80
1643384429439,20778.7297257,-208
1643384429439,20778.7297285,-80
1643384429439,20778.7297313,-14
1643384429439,20778.7297342,-161
1643384429439,20778.7297371,-163
1643384429480,20778.7297399,56
1643384429480,20778.7297428,113
1643384429480,20778.7297456,-89
1643384429480,20778.7297485,-201
1643384429480,20778.7297513,-63
1643384429480,20778.7297541,16
1643384429480,20778.7297569,-94
1643384429480,20778.7297598,-168
1643384429480,20778.7297634,-21
1643384429480,20778.7297663,165
1643384429517,20779.3805326,47
1643384429517,20779.3805453,-229
1643384429517,20779.3805489,-163
1643384429517,20779.3806026,87
1643384429517,20779.3806107,-33
1643384429517,20779.380615,-253
1643384429517,20779.3806199,-75
1643384429517,20779.3806228,149
1643384429517,20779.3806258,30
1643384429517,20779.3806296,-182
1643384429555,20779.3806326,-201
1643384429555,20779.3806355,-108
1643384429555,20779.3806383,-61
1643384429555,20779.3806412,2
1643384429555,20779.3806441,59
1643384429555,20779.3806469,-26
1643384429555,20779.3806499,-134
1643384429555,20779.3806546,-118
1643384429555,20779.3807077,-80
1643384429555,20779.3807275,-49
1643384429597,20779.3807323,26
1643384429597,20779.3807359,75
1643384429597,20779.380742,28
1643384429597,20779.3807449,-104
1643384429597,20779.3807479,-161
1643384429597,20779.3807527,-37
1643384429597,20779.380757,59
1643384429597,20779.3807617,-9
1643384429597,20779.3807647,-87
1643384429597,20779.3807685,-28
1643384429638,20779.3807716,111
1643384429638,20779.3807745,113
1643384429638,20779.3807773,-82
1643384429638,20779.3807802,-113
1643384429638,20779.3807832,89
1643384429638,20779.380788,66
1643384429638,20779.3807921,-80
1643384429638,20779.380796,68
1643384429638,20779.3807987,189
1643384429638,20779.3808015,9
1643384429677,20779.3808042,-87
1643384429677,20779.3808069,-44
1643384429677,20779.3808096,9
1643384429677,20779.3808123,393
1643384429677,20779.3808155,1051
1643384429677,20779.3808185,1522
1643384429677,20779.3808212,1482
1643384429677,20779.3808455,440
1643384429677,20779.3808498,-1065
1643384429677,20779.3808528,-1345
1643384429715,20779.3808571,-532
1643384429715,20779.3808598,-78
1643384429715,20779.3808627,-49
1643384429715,20779.3808656,16
1643384430038,20779.3808684,26
1643384430038,20779.3808712,-40
1643384430038,20779.3808739,-28
1643384430038,20779.3808767,18
1643384430038,20779.3808794,4
1643384430038,20779.3808821,9
1643384430038,20779.3808848,118
1643384430038,20779.3808876,203
1643384430038,20779.3808909,149
1643384430038,20779.3808936,85
1643384430074,20779.3808963,89
1643384430074,20779.380899,153
1643384430074,20779.380902,307
1643384430074,20779.3809047,374
1643384430074,20779.3809074,260
1643384430074,20779.3809101,267
1643384430074,20779.3809129,473
1643384430074,20779.3809156,502
1643384430074,20779.3809183,305
1643384430074,20779.9846479,367
1643384430112,20779.9846609,644
1643384430112,20779.9846658,665
1643384430112,20779.9846712,615
1643384430112,20779.9846742,677
1643384430112,20779.984678,584
1643384430112,20779.9846809,426
1643384430112,20779.9846837,357
1643384430112,20779.9846867,239
1643384430112,20779.9846914,75
1643384430112,20779.9846943,-42
1643384430153,20779.9846981,-134
1643384430153,20779.9847011,-163
1643384430153,20779.9847655,-170
1643384430153,20779.9847706,-251
1643384430153,20779.9847735,-312
1643384430153,20779.9847764,-277
1643384430153,20779.9847793,-229
1643384430153,20779.9847823,-213
1643384430153,20779.9847856,-153
1643384430153,20779.9847885,-168
1643384430192,20779.9847941,-312
1643384430192,20779.9847971,-348
1643384430192,20779.9848,-217
1643384430192,20779.9848027,-125
1643384430192,20779.9848055,-165
1643384430192,20779.9848082,-187
1643384430192,20779.9848128,-111
1643384430192,20779.9848173,-66
1643384430192,20779.9848202,-177
1643384430192,20779.9848232,-265
1643384430229,20779.9848262,-127
1643384430229,20779.9848312,-26
1643384430229,20779.9848342,-108
1643384430229,20779.984839,-99
1643384430229,20779.984842,-4
1643384430229,20779.9848461,-54
1643384430229,20779.984849,-163
1643384430229,20779.9848528,-175
1643384430229,20779.9848557,-104
1643384430229,20779.9848586,-40
1643384430271,20779.9848615,-61
1643384430271,20779.9848644,-40
1643384430271,20779.9848674,68
1643384430271,20779.9848725,21
1643384430271,20779.9848755,-194
1643384430271,20779.9848923,-265
1643384430271,20779.9848974,-37
1643384430271,20779.9849004,127
1643384430271,20779.9849053,-28
1643384430271,20779.9849082,-101
1643384430313,20779.9849111,30
1643384430313,20779.984914,66
1643384430313,20779.9849169,0
1643384430313,20779.9849217,-71
1643384430606,20779.9849247,-137
1643384430606,20779.9849276,-73
1643384430606,20779.9849304,49
1643384430606,20779.9849332,9
1643384430606,20779.984936,-59
1643384430606,20779.9849387,9
1643384430606,20779.9849415,35
1643384430606,20779.9849442,-132
1643384430606,20779.9849469,-236
1643384430606,20779.9849497,14
1643384430649,20779.9849524,215
1643384430649,20779.9849552,54
1643384430649,20779.984958,-54
1643384430649,20779.9849607,21
1643384430649,20779.9849635,26
1643384430649,20779.9849662,-21
1643384430649,20779.984969,-33
1643384430649,20779.9849718,-40
1643384430649,20780.5300247,-78
1643384430649,20780.5300376,-68
1643384430693,20780.530043,134
1643384430693,20780.5300484,504
1643384430693,20780.5300514,959
1643384430693,20780.5300562,1458
1643384430693,20780.5300591,1489
1643384430693,20780.5300621,241
1643384430693,20780.530066,-1323
1643384430693,20780.530069,-1214
1643384430693,20780.5300737,-286
1643384430693,20780.5300783,-234
1643384430737,20780.5300831,-251
1643384430737,20780.5300859,125
1643384430737,20780.5300888,153
1643384430737,20780.5300917,-28
1643384430737,20780.5300946,-89
1643384430737,20780.5300974,-113
1643384430737,20780.5301003,23
1643384430737,20780.5301031,175
1643384430737,20780.530106,71
1643384430737,20780.5301109,59
1643384430779,20780.5301136,213
1643384430779,20780.5301166,172
1643384430779,20780.5301195,40
1643384430779,20780.5301224,118
1643384430779,20780.5301253,293
1643384430779,20780.53013,293
1643384430779,20780.5301342,281
1643384430779,20780.5301371,397
1643384430779,20780.53014,421
1643384430779,20780.5301429,393
1643384430820,20780.5301459,419
1643384430820,20780.5301489,338
1643384430820,20780.5301518,355
1643384430820,20780.5301562,618
1643384430820,20780.5301591,693
1643384430820,20780.5301619,594
1643384430820,20780.5301649,601
1643384430820,20780.5301698,499
1643384430820,20780.5301725,156
1643384430820,20780.5301755,-89
1643384430861,20780.5301794,-37
1643384430861,20780.530184,-28
1643384430861,20780.5301869,-158
1643384430861,20780.5301898,-137
1643384430861,20780.5301937,-63
1643384430861,20780.5301966,-172
1643384430861,20780.5302007,-322
1643384430861,20780.5302036,-383
1643384430861,20780.5302075,-329
1643384430861,20780.5302104,-175
1643384430897,20780.5302143,-134
1643384430897,20780.5302171,-201
1643384430897,20780.5302201,-172
1643384430897,20780.530224,-182
1643384431100,20780.5302269,-288
1643384431100,20780.5302297,-236
1643384431100,20780.5302323,-40
1643384431100,20780.5302351,-23
1643384431100,20780.5302378,-184
1643384431100,20780.5302405,-151
1643384431100,20780.5302433,49
1643384431100,20780.530246,73
1643384431100,20780.5302487,-82
1643384431100,20780.5302514,-168
1643384431141,20780.5302541,-161
1643384431141,20780.5302568,-184
1643384431141,20780.5302596,-97
1643384431141,20780.5302623,30
1643384431141,20780.5302651,-42
1643384431141,20780.5302688,-78
1643384431141,20780.5302717,7
1643384431141,20781.0314953,-56
1643384431141,20781.0315075,-151
1643384431141,20781.0315121,-87
1643384431183,20781.0315172,-49
1643384431183,20781.0315204,-85
1643384431183,20781.0315252,-89
1643384431183,20781.03153,-85
1643384431183,20781.0315348,-40
1643384431183,20781.0315393,-18
1643384431183,20781.0315442,-59
1643384431183,20781.0315488,-30
1643384431183,20781.0315526,28
1643384431183,20781.0315557,-2
1643384431226,20781.0315608,-132
1643384431226,20781.0315647,-210
1643384431226,20781.0315694,-33
1643384431226,20781.031574,80
1643384431226,20781.0315786,-144
1643384431226,20781.0315832,-149
1643384431226,20781.031588,108
1643384431226,20781.0315929,75
1643384431226,20781.0315975,-66
1643384431226,20781.0316022,-35
1643384431268,20781.0316069,9
1643384431268,20781.0316108,30
1643384431268,20781.0316138,47
1643384431268,20781.0316195,7
1643384431268,20781.0316225,-18
1643384431268,20781.0316264,-49
1643384431268,20781.0316294,-66
1643384431268,20781.0316324,0
1643384431268,20781.0316365,35
1643384431268,20781.0316396,146
1643384431308,20781.0316445,644
1643384431308,20781.0316475,1333
1643384431308,20781.0316504,1629
1643384431308,20781.0316545,902
1643384431308,20781.0316576,-679
1643384431308,20781.0316623,-1418
1643384431308,20781.0316651,-743
1643384431308,20781.0316682,-227
1643384431308,20781.0316722,-286
1643384431308,20781.0316752,-165
1643384431350,20781.031679,30
1643384431350,20781.0316821,-16
1643384431350,20781.0316871,-80
1643384431350,20781.0316912,11
1643384431350,20781.0316941,125
1643384431350,20781.0316971,111
1643384431350,20781.0317001,42
1643384431350,20781.031703,30
1643384431350,20781.031706,23
1643384431350,20781.0317152,97
1643384431392,20781.0317183,227
1643384431392,20781.031723,201
1643384431392,20781.0317259,187
1643384431392,20781.0317289,267
1643384431600,20781.0317327,217
1643384431600,20781.0317356,149
1643384431600,20781.0317385,314
1643384431600,20781.0317413,473
1643384431600,20781.0317441,419
1643384431600,20781.0317469,461
1643384431600,20781.0317497,627
1643384431600,20781.0317525,632
1643384431600,20781.0317552,570
1643384431600,20781.031758,525
1643384431641,20781.031761,397
1643384431641,20781.0317637,362
1643384431641,20781.0317665,412
1643384431641,20781.0317695,246
1643384431641,20781.0317725,4
1643384431641,20781.0317754,-37
1643384431641,20781.534106,-2
1643384431641,20781.5341187,-89
1643384431641,20781.534122,-224
1643384431641,20781.5341251,-291
1643384431682,20781.5341278,-284
1643384431682,20781.5341305,-253
1643384431682,20781.5341332,-246
1643384431682,20781.5341358,-177
1643384431682,20781.5341385,-101
1643384431682,20781.5341412,-130
1643384431682,20781.5341439,-234
1643384431682,20781.5341466,-296
1643384431682,20781.53415,-172
1643384431682,20781.5341529,-68
1643384431720,20781.5341558,-165
1643384431720,20781.5341588,-172
1643384431720,20781.534163,-59
1643384431720,20781.534166,-73
1643384431720,20781.5341709,-127
1643384431720,20781.5341736,-116
1643384431720,20781.5341765,-163
1643384431720,20781.534182,-182
1643384431720,20781.5341856,-40
1643384431720,20781.5341885,-9
1643384431752,20781.5341914,-111
1643384431752,20781.5341953,-163
1643384431752,20781.5341983,-267
1643384431752,20781.5342023,-322
1643384431752,20781.5342051,-187
1643384431752,20781.534208,35
1643384431752,20781.5342109,168
1643384431752,20781.5342158,18
1643384431752,20781.5342188,-123
1643384431752,20781.5342222,-28
1643384431787,20781.5342272,9
1643384431787,20781.5342299,-18
1643384431787,20781.5342329,-2
1643384431787,20781.5342376,-71
1643384431787,20781.5342422,-172
1643384431787,20781.534247,-137
1643384431787,20781.5342506,-54
1643384431787,20781.5342546,-23
1643384431787,20781.5342575,-4
1643384431787,20781.5342624,0
1643384431823,20781.5342652,16
1643384431823,20781.5342681,-16
1643384431823,20781.5342721,-168
1643384431823,20781.5342749,-175
1643384431823,20781.5342787,21
1643384431823,20781.534282,89
1643384431823,20781.5342869,-11
1643384431823,20781.5342911,-40
1643384431823,20781.5342949,30
1643384431823,20781.5342978,52
1643384431861,20781.5343006,-4
1643384431861,20781.5343053,-42
1643384431861,20781.5343083,14
1643384431861,20781.534313,80
1643384432211,20781.5343161,56
1643384432211,20781.5343213,14
1643384432211,20781.5343242,-42
1643384432211,20781.534327,-134
1643384432211,20781.5343297,-54
1643384432211,20781.5343324,134
1643384432211,20781.5343352,73
1643384432211,20781.5343379,-40
1643384432211,20781.5343406,234
1643384432211,20781.5343433,854
1643384432254,20781.534346,1458
1643384432254,20781.5343487,1612
1643384432254,20781.5343514,722
1643384432254,20781.5343541,-805
1643384432254,20781.5343568,-1243
1643384432254,20782.1320898,-584
1643384432254,20782.1321031,-314
1643384432254,20782.1321082,-251
1643384432254,20782.1321131,78
1643384432254,20782.1321163,73
1643384432295,20782.1321194,-139
1643384432295,20782.1321241,7
1643384432295,20782.1321269,156
1643384432295,20782.1321299,-9
1643384432295,20782.1321347,-80
1643384432295,20782.1321375,89
1643384432295,20782.1321405,142
1643384432295,20782.1321445,44
1643384432295,20782.1322135,80
1643384432295,20782.1322207,172
1643384432339,20782.1322241,85
1643384432339,20782.1322293,-33
1643384432339,20782.1322324,125
1643384432339,20782.132237,383
1643384432339,20782.1322399,298
1643384432339,20782.1322428,161
1643384432339,20782.1322471,395
1643384432339,20782.13225,554
1643384432339,20782.1322539,383
1643384432339,20782.1322569,288
1643384432380,20782.1322616,303
1643384432380,20782.1322644,449
1643384432380,20782.1322673,824
1643384432380,20782.1322702,786
1643384432380,20782.1322731,281
1643384432380,20782.1322761,144
1643384432380,20782.13228,265
1643384432380,20782.132283,73
1643384432380,20782.1322882,-134
1643384432380,20782.1322912,-99
1643384432428,20782.1322957,-87
1643384432428,20782.1322984,-170
1643384432428,20782.1323014,-222
1643384432428,20782.1323051,-255
1643384432428,20782.1323081,-331
1643384432428,20782.1323128,-336
1643384432428,20782.1323174,-251
1643384432428,20782.1323219,-288
1643384432428,20782.1323263,-319
1643384432428,20782.1323309,-108
1643384432467,20782.132334,-11
1643384432467,20782.1323387,-260
1643384432467,20782.1323417,-402
1643384432467,20782.1323446,-168
1643384432467,20782.1323493,-52
1643384432467,20782.132352,-198
1643384432467,20782.132355,-127
1643384432467,20782.1323589,7
1643384432467,20782.1323618,-99
1643384432467,20782.1323656,-220
1643384432511,20782.1323686,-224
1643384432511,20782.1323725,-89
1643384432511,20782.1323754,-7
1643384432511,20782.1323783,-137
1643384432896,20782.1323823,-125
1643384432896,20782.1323852,-7
1643384432896,20782.1323879,-111
1643384432896,20782.1323907,-203
1643384432896,20782.1323933,-71
1643384432896,20782.132396,-9
1643384432896,20782.1323988,-163
1643384432896,20782.1324017,-191
1643384432896,20782.1324044,0
1643384432896,20782.1324072,54
1643384432937,20782.1324099,-63
1643384432937,20782.1324126,-61
1643384432937,20782.1324153,-4
1643384432937,20782.1324181,-63
1643384432937,20782.8314358,-97
1643384432937,20782.8314486,-85
1643384432937,20782.8314528,-116
1643384432937,20782.8314577,-47
1643384432937,20782.8314607,94
1643384432937,20782.8314637,92
1643384432980,20782.8314667,-59
1643384432980,20782.8314709,-236
1643384432980,20782.8314739,-265
1643384432980,20782.8314779,-106
1643384432980,20782.831481,26
1643384432980,20782.8314851,16
1643384432980,20782.831488,-21
1643384432980,20782.831491,-2
1643384432980,20782.831494,-21
1643384432980,20782.8314979,-168
1643384433021,20782.8315008,-163
1643384433021,20782.8315049,7
1643384433021,20782.8315078,-33
1643384433021,20782.8315108,-149
1643384433021,20782.8315137,-63
1643384433021,20782.8315167,61
1643384433021,20782.8315343,2
1643384433021,20782.8315398,-137
1643384433021,20782.8315428,-82
1643384433021,20782.8315457,54
1643384433066,20782.8315487,21
1643384433066,20782.8315517,-47
1643384433066,20782.8315546,75
1643384433066,20782.8315576,175
1643384433066,20782.8315605,61
1643384433066,20782.8315633,-87
1643384433066,20782.8315663,-151
1643384433066,20782.8315691,-56
1643384433066,20782.8315721,35
1643384433066,20782.831575,-16
1643384433110,20782.831578,232
1643384433110,20782.831581,888
1643384433110,20782.8315862,1499
1643384433110,20782.8315901,1724
1643384433110,20782.8315948,878
1643384433110,20782.8315978,-798
1643384433110,20782.8316007,-1373
1643384433110,20782.8316037,-660
1643384433110,20782.8316067,-267
1643384433110,20782.8316097,-234
1643384433154,20782.8316144,40
1643384433154,20782.8316175,184
1643384433154,20782.8316205,47
1643384433154,20782.8316235,21
1643384433154,20782.8316265,92
1643384433154,20782.8316304,40
1643384433154,20782.8316334,-66
1643384433154,20782.8316363,-82
1643384433154,20782.8316392,66
1643384433154,20782.8316421,236
1643384433199,20782.8316451,248
1643384433199,20782.831648,196
1643384433199,20782.8316509,210
1643384433199,20782.8316538,198
1643384433290,20782.8316568,132
1643384433290,20782.8316596,194
1643384433290,20782.8316624,329
1643384433290,20782.8316652,388
1643384433290,20782.8316679,457
1643384433290,20782.8316706,476
1643384433290,20782.8316734,483
1643384433290,20782.8316761,625
1643384433290,20782.8316789,660
1643384433290,20782.8316816,454
1643384433335,20782.8316843,362
