unixTime,lslTime,ECG
1643280305904,220003.5358209,-59
1643280305904,220003.5358236,-57
1643280305904,220003.5358263,-47
1643280305904,220003.535829,-49
1643280305904,220003.5358316,-59
1643280305904,220003.5358343,-59
1643280305904,220003.535837,-52
1643280305904,220003.5358397,-47
1643280305904,220003.5358423,-45
1643280305904,220003.5358451,-42
1643280305929,220003.535871,-40
1643280305929,220003.5358754,-33
1643280305929,220003.5358782,-23
1643280305929,220003.5358809,-28
1643280305929,220003.5358836,-35
1643280305929,220003.5358863,-33
1643280305929,220003.5358889,-28
1643280305929,220003.5358916,-23
1643280305929,220003.9894448,-9
1643280305929,220003.9894574,2
1643280305954,220003.9894611,2
1643280305954,220003.9894659,2
1643280305954,220003.9894689,2
1643280305954,220003.9894719,2
1643280305954,220003.9894767,4
1643280305954,220003.9894811,7
1643280305954,220003.9894848,7
1643280305954,220003.9894877,9
1643280305954,220003.9894924,19
1643280305954,220003.989496,21
1643280305978,220003.9895007,14
1643280305978,220003.9895052,-2
1643280305978,220003.9895099,-78
1643280305978,220003.9895128,-147
1643280305978,220003.9895157,80
1643280305978,220003.9895205,783
1643280305978,220003.9895248,1623
1643280305978,220003.9895298,1704
1643280305978,220003.9895328,492
1643280305978,220003.9895373,-611
1643280306004,220003.9895416,-338
1643280306004,220003.9895462,66
1643280306004,220003.9895508,-166
1643280306004,220003.9895555,-221
1643280306004,220003.9895583,-57
1643280306004,220003.9895611,-83
1643280306004,220003.9895659,-121
1643280306004,220003.9895703,-64
1643280306004,220003.9895741,-54
1643280306004,220003.989577,-71
1643280306029,220003.9895816,-49
1643280306029,220003.9895858,-30
1643280306029,220003.9895905,-26
1643280306029,220003.9895934,-7
1643280306029,220003.9895982,14
1643280306029,220003.9896019,26
1643280306029,220003.9896055,35
1643280306029,220003.9896084,59
1643280306029,220003.9896131,85
1643280306029,220003.9896158,114
1643280306054,220003.9896187,145
1643280306054,220003.9896234,166
1643280306054,220003.9896264,178
1643280306054,220003.9896302,190
1643280306054,220003.9896331,197
1643280306054,220003.9896377,178
1643280306054,220003.9896421,140
1643280306054,220003.9896467,97
1643280306054,220003.9896509,52
1643280306054,220003.9896555,-2
1643280306079,220003.9896596,-45
1643280306079,220003.9896643,-61
1643280306079,220003.9896689,-76
1643280306079,220003.9896734,-92
1643280306478,220003.9896777,-99
1643280306478,220003.9896804,-92
1643280306478,220003.9896831,-83
1643280306478,220003.9896857,-73
1643280306478,220003.9896884,-69
1643280306478,220003.9896912,-69
1643280306478,220003.9896938,-54
1643280306478,220003.9896965,-40
1643280306478,220003.9896993,-35
1643280306478,220003.9897019,-40
1643280306504,220003.9897046,-42
1643280306504,220003.9897073,-40
1643280306504,220003.98971,-40
1643280306504,220003.9897127,-42
1643280306504,220003.9897154,-35
1643280306504,220003.989718,-28
1643280306504,220003.9897207,-30
1643280306504,220004.5866507,-40
1643280306504,220004.5866639,-42
1643280306504,220004.5866674,-38
1643280306529,220004.5866706,-38
1643280306529,220004.586675,-35
1643280306529,220004.5866781,-21
1643280306529,220004.5866828,-19
1643280306529,220004.5866857,-47
1643280306529,220004.5866887,-71
1643280306529,220004.5866936,-61
1643280306529,220004.5866981,-52
1643280306529,220004.5867028,-52
1643280306529,220004.5867073,-40
1643280306555,220004.5867114,-33
1643280306555,220004.5867143,-40
1643280306555,220004.586719,-33
1643280306555,220004.5867232,-23
1643280306555,220004.586728,-30
1643280306555,220004.5867308,-38
1643280306555,220004.5867337,-33
1643280306555,220004.5867366,-14
1643280306555,220004.5867395,2
1643280306555,220004.5867442,11
1643280306579,220004.586747,7
1643280306579,220004.5867524,-7
1643280306579,220004.5867566,0
1643280306579,220004.5867594,21
1643280306579,220004.5867621,21
1643280306579,220004.5867649,16
1643280306579,220004.5867676,21
1643280306579,220004.5867702,30
1643280306579,220004.5867731,33
1643280306579,220004.5867758,26
1643280306604,220004.5867795,-7
1643280306604,220004.5867836,-95
1643280306604,220004.5867864,-92
1643280306604,220004.5867892,302
1643280306604,220004.5867919,1135
1643280306604,220004.5867946,1904
1643280306604,220004.5867975,1549
1643280306604,220004.5868004,42
1643280306604,220004.5868033,-673
1643280306604,220004.5868084,-102
1643280306629,220004.5868111,90
1643280306629,220004.5868141,-199
1643280306629,220004.586818,-133
1643280306629,220004.5868209,-11
1643280306629,220004.5868259,-85
1643280306629,220004.5868286,-88
1643280306629,220004.5868315,-23
1643280306629,220004.5868363,-35
1643280306629,220004.5868391,-42
1643280306629,220004.5868419,-14
1643280306654,220004.5868458,-9
1643280306654,220004.5868487,-9
1643280306654,220004.5868537,19
1643280306654,220004.5868567,40
1643280307030,220004.5868596,49
1643280307030,220004.5868624,71
1643280307030,220004.5868652,99
1643280307030,220004.5868678,123
1643280307030,220004.5868706,157
1643280307030,220004.5868734,188
1643280307030,220004.5868761,202
1643280307030,220004.5868788,207
1643280307030,220004.5868815,211
1643280307030,220004.5868841,216
1643280307054,220004.5868868,199
1643280307054,220004.5868895,159
1643280307054,220004.5868922,99
1643280307054,220004.5868949,47
1643280307054,220004.5868976,11
1643280307054,220004.5869004,-16
1643280307054,220005.1360653,-42
1643280307054,220005.1360783,-66
1643280307054,220005.1360826,-78
1643280307054,220005.1360878,-73
1643280307078,220005.1360909,-66
1643280307078,220005.136096,-78
1643280307078,220005.1360991,-99
1643280307078,220005.1361022,-99
1643280307078,220005.1361061,-83
1643280307078,220005.1361091,-76
1643280307078,220005.1361128,-71
1643280307078,220005.1361169,-64
1643280307078,220005.1361199,-59
1643280307078,220005.1361247,-59
1643280307103,220005.1361296,-54
1643280307103,220005.1361344,-47
1643280307103,220005.1361373,-49
1643280307103,220005.1361404,-49
1643280307103,220005.1361452,-49
1643280307103,220005.1361499,-54
1643280307103,220005.1361544,-54
1643280307103,220005.1361574,-47
1643280307103,220005.1361624,-49
1643280307103,220005.1361652,-59
1643280307129,220005.1361693,-57
1643280307129,220005.1361724,-54
1643280307129,220005.1361751,-54
1643280307129,220005.1361779,-47
1643280307129,220005.1361807,-40
1643280307129,220005.1361834,-40
1643280307129,220005.1361865,-40
1643280307129,220005.1361892,-38
1643280307129,220005.1361923,-38
1643280307129,220005.1361952,-35
1643280307154,220005.1361982,-33
1643280307154,220005.1362021,-33
1643280307154,220005.1362051,-30
1643280307154,220005.13621,-38
1643280307154,220005.1362138,-52
1643280307154,220005.1362186,-57
1643280307154,220005.1362214,-49
1643280307154,220005.1362245,-40
1643280307154,220005.1362287,-23
1643280307154,220005.1362317,-9
1643280307178,220005.1362365,-21
1643280307178,220005.1362393,-35
1643280307178,220005.1362423,-21
1643280307178,220005.1362462,-11
1643280307178,220005.1362502,-14
1643280307178,220005.1362532,-9
1643280307178,220005.136258,-2
1643280307178,220005.1362608,-2
1643280307178,220005.1362639,-2
1643280307178,220005.1362687,0
1643280307203,220005.136273,-33
1643280307203,220005.136278,-130
1643280307203,220005.1362812,-130
1643280307203,220005.136286,261
1643280307554,220005.1362891,1085
1643280307554,220005.136292,1854
1643280307554,220005.1362948,1537
1643280307554,220005.1362976,76
1643280307554,220005.1363003,-668
1643280307554,220005.1363031,-147
1643280307554,220005.1363058,45
1643280307554,220005.1363086,-240
1643280307554,220005.1363115,-178
1643280307554,220005.1363144,-49
1643280307578,220005.1363509,-123
1643280307578,220005.1363567,-121
1643280307578,220005.1363606,-59
1643280307578,220005.1363654,-76
1643280307578,220005.1363684,-83
1643280307578,220005.6395269,-52
1643280307578,220005.6395393,-45
1643280307578,220005.6395429,-45
1643280307578,220005.6395482,-35
1643280307578,220005.6395518,-40
1643280307603,220005.6395565,-47
1643280307603,220005.639561,-23
1643280307603,220005.6395659,4
1643280307603,220005.6395688,26
1643280307603,220005.6395728,57
1643280307603,220005.6395758,80
1643280307603,220005.6395807,90
1643280307603,220005.6395853,109
1643280307603,220005.6395904,121
1643280307603,220005.6395935,114
1643280307629,220005.6395981,99
1643280307629,220005.6396011,71
1643280307629,220005.6396041,21
1643280307629,220005.6396088,-33
1643280307629,220005.6396118,-76
1643280307629,220005.6396148,-104
1643280307629,220005.6396197,-130
1643280307629,220005.6396239,-145
1643280307629,220005.6396286,-149
1643280307629,220005.6396324,-152
1643280307653,220005.6396373,-147
1643280307653,220005.6396418,-135
1643280307653,220005.6396466,-123
1643280307653,220005.639651,-116
1643280307653,220005.6396549,-109
1643280307653,220005.6396579,-102
1643280307653,220005.6396626,-95
1643280307653,220005.6396669,-90
1643280307653,220005.6396715,-83
1643280307653,220005.6396759,-78
1643280307678,220005.6396807,-66
1643280307678,220005.6396836,-64
1643280307678,220005.6396884,-61
1643280307678,220005.6396913,-59
1643280307678,220005.6396943,-59
1643280307678,220005.639699,-61
1643280307678,220005.6397021,-54
1643280307678,220005.6397063,-52
1643280307678,220005.6397093,-54
1643280307678,220005.6397141,-54
1643280307704,220005.6397172,-52
1643280307704,220005.6397218,-54
1643280307704,220005.6397249,-54
1643280307704,220005.6397297,-49
1643280307704,220005.6397342,-45
1643280307704,220005.6397389,-47
1643280307704,220005.6397418,-47
1643280307704,220005.6397448,-40
1643280307704,220005.6397602,-35
1643280307704,220005.6397632,-33
1643280307729,220005.6397661,-28
1643280307729,220005.63977,-26
1643280307729,220005.6397736,-26
1643280307729,220005.6397766,-26
1643280308155,220005.6397805,-23
1643280308155,220005.6397834,-19
1643280308155,220005.6397862,-14
1643280308155,220005.639789,-11
1643280308155,220005.6397918,-9
1643280308155,220005.6397945,-7
1643280308155,220005.6397973,-7
1643280308155,220005.6398002,-4
1643280308155,220005.6398029,-7
1643280308155,220005.6398057,-7
1643280308178,220005.6398085,0
1643280308178,220005.6398113,9
1643280308178,220005.6398141,19
1643280308178,220005.6398169,26
1643280308178,220006.2394938,21
1643280308178,220006.2395062,16
1643280308178,220006.2395105,16
1643280308178,220006.2395157,-4
1643280308178,220006.239519,-23
1643280308178,220006.2395236,-16
1643280308203,220006.2395283,-7
1643280308203,220006.239533,-2
1643280308203,220006.239536,0
1643280308203,220006.239539,-7
1643280308203,220006.2395436,-69
1643280308203,220006.2395481,-138
1643280308203,220006.2395529,28
1643280308203,220006.2395573,628
1643280308203,220006.2395619,1475
1643280308203,220006.2395648,1847
1643280308229,220006.2395694,928
1643280308229,220006.239574,-390
1643280308229,220006.2395788,-437
1643280308229,220006.2395818,52
1643280308229,220006.2395864,-88
1643280308229,220006.2395907,-228
1643280308229,220006.2395953,-76
1643280308229,220006.2395996,-71
1643280308229,220006.2396042,-130
1643280308229,220006.2396071,-71
1643280308254,220006.2396101,-47
1643280308254,220006.2396148,-73
1643280308254,220006.2396188,-59
1643280308254,220006.239624,-40
1643280308254,220006.239627,-38
1643280308254,220006.2396315,-33
1643280308254,220006.2396354,-19
1643280308254,220006.2396399,-7
1643280308254,220006.239643,0
1643280308254,220006.2396478,14
1643280308279,220006.239652,33
1643280308279,220006.2396566,54
1643280308279,220006.2396612,76
1643280308279,220006.2396658,104
1643280308279,220006.2396701,130
1643280308279,220006.2396748,154
1643280308279,220006.2396777,164
1643280308279,220006.2396825,164
1643280308279,220006.2396856,147
1643280308279,220006.2396886,111
1643280308303,220006.2396932,64
1643280308303,220006.2396977,14
1643280308303,220006.2397024,-28
1643280308303,220006.2397053,-59
1643280308303,220006.2397083,-80
1643280308303,220006.2397131,-92
1643280308303,220006.2397161,-90
1643280308303,220006.2397191,-85
1643280308303,220006.239723,-85
1643280308303,220006.2397259,-80
1643280308329,220006.2397299,-69
1643280308329,220006.2397329,-59
1643280308329,220006.2397376,-52
1643280308329,220006.2397418,-45
1643280308754,220006.2397464,-35
1643280308754,220006.239752,-33
1643280308754,220006.239755,-33
1643280308754,220006.239758,-28
1643280308754,220006.2397608,-23
1643280308754,220006.2397636,-19
1643280308754,220006.2397664,-14
1643280308754,220006.2397691,-14
1643280308754,220006.2397721,-14
1643280308754,220006.2397749,-16
1643280308779,220006.2397776,-14
1643280308779,220006.2397804,-9
1643280308779,220006.2397833,-7
1643280308779,220006.8394774,-9
1643280308779,220006.8394899,-7
1643280308779,220006.8394937,-2
1643280308779,220006.8394987,0
1643280308779,220006.8395019,2
1643280308779,220006.8395065,2
1643280308779,220006.839511,4
1643280308803,220006.8395156,-2
1643280308803,220006.83952,-26
1643280308803,220006.8395245,-38
1643280308803,220006.839529,-26
1643280308803,220006.8395336,-19
1643280308803,220006.8395367,-21
1643280308803,220006.8395414,-16
1643280308803,220006.839546,-14
1643280308803,220006.8395505,-21
1643280308803,220006.839555,-21
1643280308828,220006.8395597,-14
1643280308828,220006.8395625,-11
1643280308828,220006.8395654,-14
1643280308828,220006.8395702,-21
1643280308828,220006.8395747,-23
1643280308828,220006.8395793,-21
1643280308828,220006.8395836,-16
1643280308828,220006.8395882,-7
1643280308828,220006.8395912,11
1643280308828,220006.8395957,19
1643280308854,220006.8396,11
1643280308854,220006.8396045,-2
1643280308854,220006.8396088,2
1643280308854,220006.8396137,16
1643280308854,220006.8396167,19
1643280308854,220006.8396214,9
1643280308854,220006.8396257,14
1643280308854,220006.8396303,23
1643280308854,220006.8396331,26
1643280308854,220006.8396361,23
1643280308879,220006.8396407,7
1643280308879,220006.839645,-66
1643280308879,220006.8396498,-90
1643280308879,220006.8396541,223
1643280308879,220006.8396588,956
1643280308879,220006.8396631,1735
1643280308879,220006.8396677,1644
1643280308879,220006.8396707,352
1643280308879,220006.8396754,-573
1643280308879,220006.8396784,-204
1643280308903,220006.8396824,85
1643280308903,220006.8396854,-169
1643280308903,220006.8396899,-161
1643280308903,220006.8396941,-21
1643280308903,220006.8396987,-76
1643280308903,220006.8397017,-92
1643280308903,220006.8397063,-28
1643280308903,220006.8397092,-30
1643280308903,220006.839713,-45
1643280308903,220006.839716,-23
1643280308928,220006.8397206,-9
1643280308928,220006.8397248,2
1643280308928,220006.8397294,14
1643280308928,220006.8397343,21
1643280309303,220006.8397389,35
1643280309303,220006.8397417,64
1643280309303,220006.8397445,95
1643280309303,220006.8397473,119
1643280309303,220006.83975,140
1643280309303,220006.8397528,169
1643280309303,220006.8397556,192
1643280309303,220006.8397583,216
1643280309303,220006.839761,233
1643280309303,220006.8397638,240
1643280309330,220006.8397665,235
1643280309330,220006.8397692,209
1643280309330,220007.3902165,152
1643280309330,220007.3902292,90
1643280309330,220007.3902327,47
1643280309330,220007.3902378,14
1643280309330,220007.3902408,-11
1643280309330,220007.3902455,-35
1643280309330,220007.3902486,-52
1643280309330,220007.3902533,-54
1643280309354,220007.390257,-49
1643280309354,220007.3902618,-52
1643280309354,220007.3902648,-52
1643280309354,220007.3902694,-40
1643280309354,220007.3902722,-42
1643280309354,220007.3902751,-61
1643280309354,220007.3902779,-61
1643280309354,220007.3902808,-45
1643280309354,220007.3902836,-42
1643280309354,220007.3902865,-35
1643280309379,220007.3902894,-28
1643280309379,220007.3902923,-33
1643280309379,220007.3902952,-33
1643280309379,220007.390298,-16
1643280309379,220007.3903009,-9
1643280309379,220007.3903038,-19
1643280309379,220007.3903067,-14
1643280309379,220007.3903096,-2
1643280309379,220007.3903125,-2
1643280309379,220007.3903163,-9
1643280309403,220007.3903192,-9
1643280309403,220007.3903233,2
1643280309403,220007.3903262,11
1643280309403,220007.3903291,9
1643280309403,220007.390332,9
1643280309403,220007.3903349,16
1643280309403,220007.3903377,21
1643280309403,220007.3903406,19
1643280309403,220007.3903435,16
1643280309403,220007.3903484,21
1643280309428,220007.3903523,26
1643280309428,220007.390357,21
1643280309428,220007.3903612,21
1643280309428,220007.3903659,26
1643280309428,220007.3903689,28
1643280309428,220007.3903735,30
1643280309428,220007.3903764,30
1643280309428,220007.3903794,23
1643280309428,220007.3903833,19
1643280309428,220007.3903873,21
1643280309454,220007.3903903,16
1643280309454,220007.390394,21
1643280309454,220007.3903972,35
1643280309454,220007.390402,38
1643280309454,220007.3904059,35
1643280309454,220007.3904088,33
1643280309454,220007.3904118,28
1643280309454,220007.3904167,35
1643280309454,220007.3904203,42
1643280309454,220007.3904249,35
1643280309478,220007.3904279,26
1643280309478,220007.3904327,26
1643280309478,220007.3904361,28
1643280309478,220007.3904407,28
1643280309879,220007.3904438,26
1643280309879,220007.3904466,2
1643280309879,220007.3904497,-83
1643280309879,220007.3904526,-104
1643280309879,220007.3904553,247
1643280309879,220007.3904581,1040
1643280309879,220007.3904609,1837
1643280309879,220007.3904637,1644
1643280309879,220007.3904665,207
1643280309879,220007.3904692,-685
1643280309903,220007.390472,-192
1643280309903,220007.9882272,102
1643280309903,220007.9882399,-190
1643280309903,220007.9882437,-169
1643280309903,220007.9882486,-11
1643280309903,220007.9882517,-71
1643280309903,220007.9882556,-99
1643280309903,220007.9882587,-40
1643280309903,220007.9882633,-40
1643280309903,220007.9882661,-47
1643280309928,220007.9882692,-14
1643280309928,220007.9882738,-9
1643280309928,220007.9882767,-33
1643280309928,220007.9882796,-42
1643280309928,220007.9882838,-23
1643280309928,220007.9882877,7
1643280309928,220007.9882922,28
1643280309928,220007.9882951,54
1643280309928,220007.988298,83
1643280309928,220007.9883018,111
1643280309952,220007.9883048,147
1643280309952,220007.9883078,185
1643280309952,220007.9883125,207
1643280309952,220007.9883153,218
1643280309952,220007.9883183,216
1643280309952,220007.9883212,199
1643280309952,220007.988324,166
1643280309952,220007.9883279,119
1643280309952,220007.9883309,69
1643280309952,220007.9883348,21
1643280309978,220007.9883384,-21
1643280309978,220007.988343,-57
1643280309978,220007.9883459,-76
1643280309978,220007.9883489,-76
1643280309978,220007.9883525,-76
1643280309978,220007.9883569,-80
1643280309978,220007.9883605,-88
1643280309978,220007.9883652,-78
1643280309978,220007.9883681,-59
1643280309978,220007.988371,-54
1643280310003,220007.9883749,-49
1643280310003,220007.9883777,-35
1643280310003,220007.9883824,-28
1643280310003,220007.9883852,-26
1643280310003,220007.9883881,-21
1643280310003,220007.988391,-16
1643280310003,220007.9883959,-9
1643280310003,220007.9883988,-4
1643280310003,220007.9884017,-4
1643280310003,220007.9884046,-4
1643280310028,220007.9884075,-4
1643280310028,220007.9884104,-4
1643280310028,220007.9884143,-4
1643280310028,220007.9884176,-7
1643280310028,220007.9884222,-9
1643280310028,220007.9884261,-7
1643280310028,220007.9884311,-2
1643280310028,220007.9884356,-9
1643280310028,220007.9884404,-19
1643280310028,220007.9884449,-11
1643280310053,220007.9884498,-4
1643280310053,220007.9884526,-9
1643280310053,220007.9884555,-9
1643280310053,220007.9884597,-4
1643280310479,220007.9884627,-4
1643280310479,220007.9884655,-7
1643280310479,220007.9884683,-4
1643280310479,220007.9884709,-4
1643280310479,220007.9884737,-11
1643280310479,220007.9884764,-14
1643280310479,220007.9884791,-11
1643280310479,220007.9884818,-14
1643280310479,220007.9884845,-16
1643280310479,220007.9884872,-19
1643280310503,220008.585488,-26
1643280310503,220008.5855004,-28
1643280310503,220008.5855042,-26
1643280310503,220008.585509,-16
1643280310503,220008.5855127,-14
1643280310503,220008.5855174,-23
1643280310503,220008.5855219,-26
1643280310503,220008.5855268,-14
1643280310503,220008.5855296,-2
1643280310503,220008.5855332,-7
1643280310527,220008.5855361,-19
1643280310527,220008.5855391,-16
1643280310527,220008.5855425,-11
1643280310527,220008.5855455,-7
1643280310527,220008.5855496,-7
1643280310527,220008.5855526,-57
1643280310527,220008.5855575,-166
1643280310527,220008.5855603,-104
1643280310527,220008.5855633,421
1643280310527,220008.5855681,1304
1643280310552,220008.5855709,1885
1643280310552,220008.5855738,1178
1643280310552,220008.5855779,-307
1643280310552,220008.5855809,-621
1643280310552,220008.585585,-28
1643280310552,220008.585588,-42
1643280310552,220008.5855919,-266
1643280310552,220008.5855948,-121
1643280310552,220008.5855999,-61
1643280310552,220008.5856036,-145
1643280310579,220008.5856075,-111
1643280310579,220008.5856105,-61
1643280310579,220008.5856152,-83
1643280310579,220008.5856196,-80
1643280310579,220008.5856246,-59
1643280310579,220008.5856289,-57
1643280310579,220008.5856328,-52
1643280310579,220008.5856375,-30
1643280310579,220008.5856421,-14
1643280310579,220008.5856472,2
1643280310603,220008.5856516,23
1643280310603,220008.5856563,45
1643280310603,220008.5856606,69
1643280310603,220008.5856651,99
1643280310603,220008.585668,130
1643280310603,220008.585671,159
1643280310603,220008.5856748,178
1643280310603,220008.5856798,188
1643280310603,220008.5856825,185
1643280310603,220008.5856855,164
1643280310627,220008.5856905,128
1643280310627,220008.5856946,73
1643280310627,220008.5856993,14
1643280310627,220008.5857037,-33
1643280310627,220008.5857084,-66
1643280310627,220008.5857113,-90
1643280310627,220008.5857143,-104
1643280310627,220008.5857191,-107
1643280310627,220008.5857219,-104
1643280310627,220008.5857249,-104
1643280310652,220008.5857296,-109
1643280310652,220008.5857342,-107
1643280310652,220008.5857381,-97
1643280310652,220008.5857411,-90
1643280310979,220008.5857458,-80
1643280310979,220008.5857493,-76
1643280310979,220008.5857521,-69
1643280310979,220008.5857548,-59
1643280310979,220008.5857576,-49
1643280310979,220008.5857603,-49
1643280310979,220008.585763,-47
1643280310979,220008.5857658,-42
1643280310979,220008.5857685,-42
1643280310979,220009.0881612,-38
1643280311003,220009.0881901,-38
1643280311003,220009.0881982,-40
1643280311003,220009.0882016,-40
1643280311003,220009.0882065,-45
1643280311003,220009.0882093,-47
1643280311003,220009.0882123,-47
1643280311003,220009.0882163,-45
1643280311003,220009.0882192,-47
1643280311003,220009.0882221,-54
1643280311003,220009.088225,-49
1643280311027,220009.0882279,-42
1643280311027,220009.0882308,-42
1643280311027,220009.0882336,-38
1643280311027,220009.0882365,-40
1643280311027,220009.0882398,-59
1643280311027,220009.0882448,-71
1643280311027,220009.0882489,-57
1643280311027,220009.0882537,-49
1643280311027,220009.0882565,-54
1643280311027,220009.0882594,-54
1643280311053,220009.0882623,-59
1643280311053,220009.0882651,-71
1643280311053,220009.088268,-71
1643280311053,220009.0882709,-64
1643280311053,220009.0882746,-61
1643280311053,220009.0882792,-59
1643280311053,220009.0882821,-61
1643280311053,220009.0882851,-69
1643280311053,220009.088288,-69
1643280311053,220009.0882919,-59
1643280311079,220009.0882959,-47
1643280311079,220009.0882988,-33
1643280311079,220009.0883036,-23
1643280311079,220009.0883064,-28
1643280311079,220009.0883096,-33
1643280311079,220009.0883143,-21
1643280311079,220009.0883188,-9
1643280311079,220009.0883234,-9
1643280311079,220009.0883279,-11
1643280311079,220009.0883327,-9
1643280311103,220009.0883355,-9
1643280311103,220009.0883385,-2
1643280311103,220009.0883414,4
1643280311103,220009.0883442,-14
1643280311103,220009.0883471,-97
1643280311103,220009.0883503,-109
1643280311103,220009.0883549,226
1643280311103,220009.0883594,973
1643280311103,220009.0883633,1754
1643280311103,220009.0883663,1647
1643280311128,220009.0883701,335
1643280311128,220009.0883732,-585
1643280311128,220009.0883771,-211
1643280311128,220009.08838,61
1643280311128,220009.0883829,-199
1643280311128,220009.0883866,-195
1643280311128,220009.0883918,-57
1643280311128,220009.0883945,-104
1643280311128,220009.0883975,-119
1643280311128,220009.0884023,-61
1643280311152,220009.0884052,-61
1643280311152,220009.0884081,-69
1643280311152,220009.088411,-45
1643280311152,220009.0884139,-38
1643280311652,220009.0884186,-30
1643280311652,220009.0884214,-11
1643280311652,220009.0884243,-4
1643280311652,220009.088427,4
1643280311652,220009.0884297,26
1643280311652,220009.0884325,49
1643280311652,220009.0884352,76
1643280311652,220009.088438,99
1643280311652,220009.7388648,128
1643280311652,220009.7388777,157
1643280311679,220009.7388816,183
1643280311679,220009.7388871,199
1643280311679,220009.7388903,209
1643280311679,220009.7388951,207
1643280311679,220009.7388981,173
1643280311679,220009.7389011,116
1643280311679,220009.738905,59
1643280311679,220009.7389079,9
1643280311679,220009.7389109,-30
1643280311679,220009.7389168,-59
1643280311703,220009.7389199,-78
1643280311703,220009.7389247,-97
1643280311703,220009.7389286,-123
1643280311703,220009.7389333,-128
1643280311703,220009.738937,-114
1643280311703,220009.7389418,-104
1643280311703,220009.7389446,-97
1643280311703,220009.7389475,-90
1643280311703,220009.7389504,-88
1643280311703,220009.7389533,-80
1643280311728,220009.7389571,-66
1643280311728,220009.73896,-54
1643280311728,220009.7389646,-52
1643280311728,220009.7389692,-54
1643280311728,220009.7389721,-52
1643280311728,220009.7389749,-45
1643280311728,220009.738979,-45
1643280311728,220009.7389818,-45
1643280311728,220009.7389848,-40
1643280311728,220009.7389898,-35
1643280311753,220009.7389947,-38
1643280311753,220009.7389993,-38
1643280311753,220009.7390022,-33
1643280311753,220009.7390051,-30
1643280311753,220009.7390079,-28
1643280311753,220009.7390118,-26
1643280311753,220009.7390147,-23
1643280311753,220009.7390175,-23
1643280311753,220009.7390204,-26
1643280311753,220009.7390233,-28
1643280311777,220009.7390262,-23
1643280311777,220009.739029,-23
1643280311777,220009.7390318,-26
1643280311777,220009.7390357,-30
1643280311777,220009.7390386,-40
1643280311777,220009.7390415,-38
1643280311777,220009.7390444,-35
1643280311777,220009.7390491,-35
1643280311777,220009.7390536,-30
1643280311777,220009.7390592,-26
1643280311804,220009.7390638,-23
1643280311804,220009.7390684,-21
1643280311804,220009.7390727,-21
1643280311804,220009.7390775,-16
1643280311804,220009.7390818,-16
1643280311804,220009.7390865,-16
1643280311804,220009.7390911,-19
1643280311804,220009.7390956,-23
1643280311804,220009.7391,-19
1643280311804,220009.7391046,-7
1643280311827,220009.7391083,4
1643280311827,220009.7391133,14
1643280311827,220009.7391164,19
1643280311827,220009.7391209,9
1643280312157,220009.7391237,4
1643280312157,220009.7391266,16
1643280312157,220009.7391296,26
1643280312157,220009.7391323,21
1643280312157,220009.739135,19
1643280312157,220009.7391377,23
1643280312157,220009.7391404,23
1643280312157,220010.238176,28
1643280312157,220010.238189,21
1643280312157,220010.2381929,-38
1643280312186,220010.2381987,-107
1643280312186,220010.2382021,64
1643280312186,220010.2382069,666
1643280312186,220010.2382107,1497
1643280312186,220010.2382155,1825
1643280312186,220010.2382185,875
1643280312186,220010.2382234,-402
1643280312186,220010.2382278,-395
1643280312186,220010.2382325,85
1643280312186,220010.2382371,-73
1643280312229,220010.2382418,-209
1643280312229,220010.2382462,-52
1643280312229,220010.238251,-42
1643280312229,220010.2382554,-99
1643280312229,220010.2382605,-52
1643280312229,220010.2382636,-30
1643280312229,220010.2382676,-57
1643280312229,220010.2382706,-42
1643280312229,220010.2382754,-21
1643280312229,220010.2382782,-16
1643280312252,220010.238282,-7
1643280312252,220010.2382866,4
1643280312252,220010.2382896,-4
1643280312252,220010.2382943,0
1643280312252,220010.2382989,30
1643280312252,220010.2383035,66
1643280312252,220010.2383067,90
1643280312252,220010.2383112,121
1643280312252,220010.2383156,152
1643280312252,220010.2383196,173
1643280312285,220010.2383226,192
1643280312285,220010.2383273,214
1643280312285,220010.2383302,218
1643280312285,220010.2383332,197
1643280312285,220010.2383369,147
1643280312285,220010.2383399,83
1643280312285,220010.2383439,26
1643280312285,220010.2383469,-11
1643280312285,220010.2383508,-49
1643280312285,220010.2383538,-78
1643280312340,220010.2383576,-88
1643280312340,220010.2383606,-90
1643280312340,220010.2383653,-95
1643280312340,220010.2383701,-90
1643280312340,220010.2383748,-76
1643280312340,220010.2383791,-66
1643280312340,220010.2383838,-54
1643280312340,220010.2383879,-47
1643280312340,220010.2383927,-42
1643280312340,220010.238397,-38
1643280312357,220010.2384011,-35
1643280312357,220010.2384039,-30
1643280312357,220010.2384079,-21
1643280312357,220010.2384289,-19
1643280312357,220010.2384425,-21
1643280312357,220010.2384485,-16
1643280312357,220010.2384518,-11
1643280312357,220010.2384564,-11
1643280312357,220010.2384593,-11
1643280312357,220010.2384625,-9
1643280312374,220010.2384655,-7
1643280312374,220010.2384685,-9
1643280312374,220010.2384733,-2
1643280312374,220010.2384775,2
1643280312652,220010.2384823,0
1643280312652,220010.2384853,0
1643280312652,220010.2384881,0
1643280312652,220010.2384909,-4
1643280312652,220010.2384936,-9
1643280312652,220010.2384963,-9
1643280312652,220010.7403009,-4
1643280312652,220010.7403136,-2
1643280312652,220010.7403174,-2
1643280312652,220010.7403226,-2
1643280312678,220010.7403259,-2
1643280312678,220010.7403308,4
1643280312678,220010.7403339,4
1643280312678,220010.7403387,4
1643280312678,220010.7403434,11
1643280312678,220010.7403482,16
1643280312678,220010.7403528,4
1643280312678,220010.7403579,-9
1643280312678,220010.740361,-2
1643280312678,220010.7403641,7
1643280312702,220010.7403689,7
1643280312702,220010.7403718,7
1643280312702,220010.7403748,4
1643280312702,220010.7403795,-9
1643280312702,220010.7403839,-16
1643280312702,220010.7403886,-11
1643280312702,220010.7403915,-4
1643280312702,220010.7403945,-4
1643280312702,220010.7403994,-4
1643280312702,220010.7404037,-2
1643280312729,220010.7404079,4
1643280312729,220010.740411,14
1643280312729,220010.7404157,23
1643280312729,220010.7404198,28
1643280312729,220010.7404245,21
1643280312729,220010.7404287,11
1643280312729,220010.7404333,16
1643280312729,220010.7404379,23
1643280312729,220010.7404425,23
1643280312729,220010.7404454,28
1643280312752,220010.7404483,30
1643280312752,220010.7404521,33
1643280312752,220010.7404551,33
1643280312752,220010.7404598,28
1643280312752,220010.7404639,-19
1643280312752,220010.7404686,-97
1643280312752,220010.7404731,-2
1643280312752,220010.7404776,528
1643280312752,220010.7404809,1394
1643280312752,220010.7404838,1925
1643280312778,220010.7404888,1156
1643280312778,220010.7404921,-299
1643280312778,220010.7404952,-535
1643280312778,220010.7405,57
1643280312778,220010.7405028,16
1643280312778,220010.7405058,-188
1643280312778,220010.7405098,-45
1643280312778,220010.7405129,0
1643280312778,220010.7405176,-71
1643280312778,220010.7405221,-28
1643280312802,220010.7405269,11
1643280312802,220010.7405299,-7
1643280312802,220010.7405349,-7
1643280312802,220010.7405384,14
1643280312802,220010.740543,23
1643280312802,220010.7405475,38
1643280312802,220010.7405523,57
1643280312802,220010.7405551,59
1643280312802,220010.7405581,66
1643280312802,220010.7405629,97
1643280312829,220010.7405673,133
1643280312829,220010.7405711,161
1643280312829,220010.7405741,188
1643280312829,220010.7405787,218
1643280313203,220010.7405834,247
1643280313203,220010.7405863,273
1643280313203,220010.7405892,285
1643280313203,220010.7405919,288
1643280313203,220010.7405947,268
1643280313203,220011.2898052,233
1643280313203,220011.2898188,173
1643280313203,220011.2898253,104
1643280313203,220011.2898423,49
1643280313203,220011.2898484,9
1643280313228,220011.2898514,-19
1643280313228,220011.2898543,-45
1643280313228,220011.2898576,-57
1643280313228,220011.2898603,-66
1643280313228,220011.289863,-95
1643280313228,220011.2898668,-109
1643280313228,220011.2898696,-97
1643280313228,220011.2898726,-88
1643280313228,220011.2898755,-80
1643280313228,220011.2898783,-64
1643280313252,220011.2898813,-57
1643280313252,220011.2898857,-54
1643280313252,220011.2898885,-47
1643280313252,220011.2898913,-40
1643280313252,220011.289894,-35
1643280313252,220011.2898967,-33
1643280313252,220011.2898994,-33
1643280313252,220011.2899021,-30
1643280313252,220011.2899048,-33
1643280313252,220011.2899075,-47
1643280313277,220011.2899101,-47
1643280313277,220011.2899128,-47
1643280313277,220011.2899155,-52
1643280313277,220011.2899182,-45
1643280313277,220011.2899209,-47
1643280313277,220011.2899237,-59
1643280313277,220011.2899263,-52
1643280313277,220011.289929,-42
1643280313277,220011.2899318,-40
1643280313277,220011.2899344,-38
1643280313302,220011.2899371,-35
1643280313302,220011.2899398,-33
1643280313302,220011.2899425,-30
1643280313302,220011.2899452,-30
1643280313302,220011.2899478,-26
1643280313302,220011.2899505,-19
1643280313302,220011.2899532,-19
1643280313302,220011.2899559,-21
1643280313302,220011.2899585,-23
1643280313302,220011.2899612,-19
1643280313329,220011.2899641,-11
1643280313329,220011.2899668,-9
1643280313329,220011.2899695,-11
1643280313329,220011.2899722,-7
1643280313329,220011.2899749,0
1643280313329,220011.2899776,-2
1643280313329,220011.2899803,-4
1643280313329,220011.289983,-2
1643280313329,220011.2899857,-7
1643280313329,220011.2899884,-11
1643280313353,220011.2899915,-16
1643280313353,220011.2899942,-14
1643280313353,220011.2899969,-4
1643280313353,220011.2899997,4
1643280313353,220011.2900025,16
1643280313353,220011.2900052,19
1643280313353,220011.2900081,7
1643280313353,220011.2900111,4
1643280313353,220011.2900138,19
1643280313353,220011.2900165,23
1643280313377,220011.2900192,21
1643280313377,220011.2900219,21
1643280313377,220011.2900246,23
1643280313377,220011.2900273,23
1643280313754,220011.2900301,26
1643280313754,220011.2900328,21
1643280313754,220011.2900355,-40
1643280313754,220011.2900387,-123
1643280313754,220011.8395761,21
1643280313754,220011.8396383,616
1643280313754,220011.8396463,1499
1643280313754,220011.8396514,1930
1643280313754,220011.8396546,987
1643280313754,220011.8396593,-430
1643280313777,220011.8396634,-492
1643280313777,220011.8396682,59
1643280313777,220011.8396727,-102
1643280313777,220011.8396776,-278
1643280313777,220011.8396819,-102
1643280313777,220011.8396867,-85
1643280313777,220011.8396909,-161
1643280313777,220011.8396955,-104
1643280313777,220011.8397002,-71
1643280313777,220011.839705,-102
1643280313802,220011.8397079,-97
1643280313802,220011.8397108,-73
1643280313802,220011.8397137,-66
1643280313802,220011.8397167,-54
1643280313802,220011.8397216,-38
1643280313802,220011.8397243,-26
1643280313802,220011.8397273,-11
1643280313802,220011.8397322,14
1643280313802,220011.8397364,42
1643280313802,220011.8397414,73
1643280313828,220011.8397455,104
1643280313828,220011.8397503,135
1643280313828,220011.8397545,169
1643280313828,220011.8397584,195
1643280313828,220011.8397613,207
1643280313828,220011.8397652,207
1643280313828,220011.8397681,188
1643280313828,220011.839771,142
1643280313828,220011.8397739,73
1643280313828,220011.8398068,9
1643280313853,220011.8398138,-33
1643280313853,220011.8398169,-71
1643280313853,220011.8398221,-97
1643280313853,220011.839825,-114
1643280313853,220011.8398279,-121
1643280313853,220011.8398309,-119
1643280313853,220011.8398337,-116
1643280313853,220011.8398366,-119
1643280313853,220011.8398394,-116
1643280313853,220011.8398423,-109
1643280313877,220011.8398451,-102
1643280313877,220011.8398479,-97
1643280313877,220011.8398507,-88
1643280313877,220011.8398535,-76
1643280313877,220011.8398564,-69
1643280313877,220011.8398604,-61
1643280313877,220011.8398634,-64
1643280313877,220011.8398685,-69
1643280313877,220011.8398715,-64
1643280313877,220011.8398744,-57
1643280313903,220011.8398772,-54
1643280313903,220011.8398801,-57
1643280313903,220011.839883,-61
1643280313903,220011.8398859,-61
1643280313903,220011.8398886,-61
1643280313903,220011.8398914,-59
1643280313903,220011.8398942,-57
1643280313903,220011.8398971,-54
1643280313903,220011.8398999,-52
1643280313903,220011.8399027,-49
1643280313930,220011.8399057,-52
1643280313930,220011.8399085,-47
1643280313930,220011.8399114,-42
1643280313930,220011.8399141,-40
1643280314302,220011.839917,-33
1643280314302,220011.8399198,-33
1643280314302,220011.8399225,-38
1643280314302,220012.3895553,-40
1643280314302,220012.3895684,-38
1643280314302,220012.3895722,-33
1643280314302,220012.3895776,-35
1643280314302,220012.3895814,-35
1643280314302,220012.3895861,-33
1643280314302,220012.3895889,-49
1643280314329,220012.3895919,-66
1643280314329,220012.3895968,-61
1643280314329,220012.3896013,-52
1643280314329,220012.3896061,-49
1643280314329,220012.389609,-45
1643280314329,220012.3896129,-38
1643280314329,220012.3896159,-38
1643280314329,220012.3896192,-38
1643280314329,220012.3896221,-38
1643280314329,220012.3896258,-40
1643280314352,220012.3896288,-35
1643280314352,220012.3896316,-23
1643280314352,220012.3896346,-11
1643280314352,220012.3896395,2
1643280314352,220012.3896425,11
1643280314352,220012.3896463,4
1643280314352,220012.3896493,2
1643280314352,220012.3896541,11
1643280314352,220012.3896585,19
1643280314352,220012.3896632,19
1643280314377,220012.389666,19
1643280314377,220012.389669,19
1643280314377,220012.3896718,23
1643280314377,220012.3896747,26
1643280314377,220012.3896775,26
1643280314377,220012.3896805,-7
1643280314377,220012.3896833,-92
1643280314377,220012.3896862,-57
1643280314377,220012.3896891,378
1643280314377,220012.3896921,1190
1643280314402,220012.389695,1868
1643280314402,220012.3896999,1454
1643280314402,220012.3897044,47
1643280314402,220012.3897092,-561
1643280314402,220012.3897123,-66
1643280314402,220012.3897169,45
1643280314402,220012.3897198,-204
1643280314402,220012.3897227,-119
1643280314402,220012.3897255,-23
1643280314402,220012.3897283,-97
1643280314427,220012.3897312,-85
1643280314427,220012.389734,-30
1643280314427,220012.3897369,-40
1643280314427,220012.3897397,-42
1643280314427,220012.3897427,-14
1643280314427,220012.3897455,-11
1643280314427,220012.3897483,-9
1643280314427,220012.3897513,14
1643280314427,220012.3897561,26
1643280314427,220012.3897597,33
1643280314453,220012.3897626,52
1643280314453,220012.3897654,69
1643280314453,220012.3897683,90
1643280314453,220012.3897723,123
1643280314453,220012.3897752,157
1643280314453,220012.3897781,185
1643280314453,220012.389781,211
1643280314453,220012.3897851,230
1643280314453,220012.389788,233
1643280314453,220012.3897908,216
1643280314478,220012.3897938,180
1643280314478,220012.3897985,126
1643280314478,220012.3898027,64
1643280314478,220012.3898055,7
1643280314902,220012.3898084,-35
1643280314902,220012.3898112,-64
1643280314902,220012.9902061,-88
1643280314902,220012.9902174,-111
1643280314902,220012.9902209,-121
1643280314902,220012.9902237,-123
1643280314902,220012.9902264,-138
1643280314902,220012.9902297,-154
1643280314902,220012.9902324,-145
1643280314902,220012.9902352,-128
1643280314927,220012.9902378,-123
1643280314927,220012.9902405,-116
1643280314927,220012.9902466,-102
1643280314927,220012.9902494,-97
1643280314927,220012.9902569,-90
1643280314927,220012.9902602,-83
1643280314927,220012.990263,-78
1643280314927,220012.9902657,-71
1643280314927,220012.9902687,-64
1643280314927,220012.9902714,-61
1643280314953,220012.9902741,-59
1643280314953,220012.9902768,-57
1643280314953,220012.9902796,-54
1643280314953,220012.9902823,-54
1643280314953,220012.990285,-47
1643280314953,220012.9902877,-45
1643280314953,220012.9902904,-47
1643280314953,220012.9902931,-45
1643280314953,220012.9902958,-45
1643280314953,220012.9902985,-47
1643280314977,220012.9903013,-38
1643280314977,220012.990304,-30
1643280314977,220012.9903069,-30
1643280314977,220012.9903099,-28
1643280314977,220012.9903129,-26
1643280314977,220012.9903171,-23
1643280314977,220012.99032,-21
1643280314977,220012.9903228,-16
1643280314977,220012.9903255,-11
1643280314977,220012.9903282,-9
1643280315002,220012.9903309,-9
1643280315002,220012.9903337,-9
1643280315002,220012.9903364,-7
1643280315002,220012.9903392,0
1643280315002,220012.990342,4
1643280315002,220012.9903447,4
1643280315002,220012.9903475,0
1643280315002,220012.9903503,2
1643280315002,220012.990353,9
1643280315002,220012.9903557,11
1643280315027,220012.9903584,14
1643280315027,220012.9903611,16
1643280315027,220012.9903638,14
1643280315027,220012.9903666,16
1643280315027,220012.9903693,21
1643280315027,220012.990372,23
1643280315027,220012.9903747,26
1643280315027,220012.9903778,28
1643280315027,220012.9903809,28
1643280315027,220012.9903837,28
1643280315053,220012.9903864,23
1643280315053,220012.9903891,19
1643280315053,220012.990392,16
1643280315053,220012.9903947,16
1643280315053,220012.9903978,19
1643280315053,220012.9904009,21
1643280315053,220012.9904037,33
1643280315053,220012.9904064,47
1643280315053,220012.9904092,40
1643280315053,220012.9904119,21
1643280315078,220012.9904147,21
1643280315078,220012.9904174,30
1643280315078,220012.9904201,28
1643280315078,220012.9904229,28
1643280315502,220012.9904256,35
1643280315502,220013.5895537,40
1643280315502,220013.5895667,38
1643280315502,220013.5895702,35
1643280315502,220013.5895733,28
1643280315502,220013.5895785,-26
1643280315502,220013.5895814,-97
1643280315502,220013.5895855,52
1643280315502,220013.5895898,626
1643280315502,220013.5895927,1452
1643280315527,220013.5895956,1866
1643280315527,220013.5895985,1006
1643280315527,220013.5896013,-354
1643280315527,220013.5896041,-471
1643280315527,220013.5896069,38
1643280315527,220013.5896097,-76
1643280315527,220013.5896125,-242
1643280315527,220013.5896153,-95
1643280315527,220013.5896181,-71
1643280315527,220013.589621,-135
1643280315554,220013.5896238,-90
1643280315554,220013.5896266,-57
1643280315554,220013.5896294,-76
1643280315554,220013.5896323,-66
1643280315554,220013.5896353,-45
1643280315554,220013.5896382,-42
1643280315554,220013.5896432,-33
1643280315554,220013.5896459,-14
1643280315554,220013.5896488,2
1643280315554,220013.5896517,16
1643280315577,220013.5896546,33
1643280315577,220013.5896594,59
1643280315577,220013.5896638,85
1643280315577,220013.5896677,111
1643280315577,220013.5896706,140
1643280315577,220013.5896734,166
1643280315577,220013.5896772,192
1643280315577,220013.5896801,214
1643280315577,220013.5896849,221
1643280315577,220013.5896877,204
1643280315602,220013.5896907,169
1643280315602,220013.5896936,114
1643280315602,220013.5896965,52
1643280315602,220013.5896994,-4
1643280315602,220013.5897022,-47
1643280315602,220013.589705,-78
1643280315602,220013.5897079,-95
1643280315602,220013.5897114,-104
1643280315602,220013.5897143,-109
1643280315602,220013.5897182,-104
1643280315627,220013.5897211,-97
1643280315627,220013.5897241,-90
1643280315627,220013.5897287,-80
1643280315627,220013.5897315,-69
1643280315627,220013.5897344,-66
1643280315627,220013.5897372,-59
1643280315627,220013.5897401,-52
1643280315627,220013.589743,-49
1643280315627,220013.5897458,-42
1643280315627,220013.5897486,-35
1643280315653,220013.5897515,-40
1643280315653,220013.5897544,-40
1643280315653,220013.5897573,-35
1643280315653,220013.5897602,-35
1643280315653,220013.5897651,-33
1643280315653,220013.5897697,-23
1643280315653,220013.5897744,-23
1643280315653,220013.5897777,-26
1643280315653,220013.5897806,-28
1643280315653,220013.5897835,-26
1643280315678,220013.5897863,-14
1643280315678,220013.5897892,-7
1643280315678,220013.5897921,-2
1643280315678,220013.589795,-2
1643280316551,220014.0896426,-2
1643280316551,220014.0896554,2
1643280316551,220014.0896591,7
1643280316551,220014.089664,9
1643280316551,220014.089667,11
1643280316551,220014.089671,14
1643280316551,220014.089674,16
1643280316551,220014.0896787,16
1643280316551,220014.0896826,14
1643280316551,220014.0896865,14
1643280316578,220014.0896895,23
1643280316578,220014.0896943,33
1643280316578,220014.0896988,30
1643280316578,220014.0897018,28
1643280316578,220014.0897047,21
1643280316578,220014.0897076,0
1643280316578,220014.0897116,-9
1643280316578,220014.0897146,4
1643280316578,220014.0897193,9
1643280316578,220014.0897221,9
1643280316603,220014.0897251,19
1643280316603,220014.0897279,26
1643280316603,220014.0897308,23
1643280316603,220014.0897337,28
1643280316603,220014.0897366,33
1643280316603,220014.0897396,30
1643280316603,220014.0897444,33
1643280316603,220014.0897489,40
1643280316603,220014.0897537,42
1643280316603,220014.0897582,40
1643280316627,220014.089763,35
1643280316627,220014.0897674,30
1643280316627,220014.0897721,38
1643280316627,220014.0897749,47
1643280316627,220014.0897778,49
1643280316627,220014.0897807,57
1643280316627,220014.0897856,61
1643280316627,220014.0897899,57
1643280316627,220014.089793,49
1643280316627,220014.089797,54
1643280316651,220014.0897999,57
1643280316651,220014.0898038,57
1643280316651,220014.0898068,54
1643280316651,220014.0898119,57
1643280316651,220014.089815,61
1643280316651,220014.089832,59
1643280316651,220014.0898359,54
1643280316651,220014.0898387,28
1643280316651,220014.0898414,-54
1643280316651,220014.0898441,-71
1643280316677,220014.0898479,257
1643280316677,220014.0898508,1002
1643280316677,220014.0898537,1801
1643280316677,220014.0898566,1697
1643280316677,220014.0898606,318
1643280316677,220014.0898633,-647
1643280316677,220014.0898661,-207
1643280316677,220014.0898693,123
1643280316677,220014.089874,-154
1643280316677,220014.0898768,-152
1643280316702,220014.0898797,-4
1643280316702,220014.0898826,-64
1643280316702,220014.0898854,-88
1643280316702,220014.0898904,-26
1643280316702,220014.089894,-23
1643280316702,220014.0898985,-35
1643280316702,220014.0899013,-14
1643280316702,220014.0899042,-4
1643280316702,220014.0899082,-2
1643280316702,220014.0899111,9
1643280316728,220014.089914,16
1643280316728,220014.0899169,33
1643280316728,220014.0899198,54
1643280316728,220014.639582,71
1643280317178,220014.6395944,97
1643280317178,220014.6395981,135
1643280317178,220014.639601,164
1643280317178,220014.6396038,195
1643280317178,220014.6396065,226
1643280317178,220014.6396092,235
1643280317178,220014.6396119,221
1643280317178,220014.6396146,209
1643280317178,220014.6396173,192
1643280317178,220014.63962,149
1643280317203,220014.6396226,80
1643280317203,220014.6396253,16
1643280317203,220014.639628,-33
1643280317203,220014.6396308,-73
1643280317203,220014.6396335,-104
1643280317203,220014.6396362,-121
1643280317203,220014.639639,-119
1643280317203,220014.6396417,-111
1643280317203,220014.639646,-111
1643280317203,220014.6396512,-107
1643280317227,220014.6396558,-99
1643280317227,220014.6396605,-90
1643280317227,220014.6396649,-85
1643280317227,220014.6396696,-80
1643280317227,220014.6396739,-73
1643280317227,220014.6396787,-61
1643280317227,220014.6396833,-49
1643280317227,220014.639688,-40
1643280317227,220014.6396922,-35
1643280317227,220014.639697,-33
1643280317252,220014.6396998,-30
1643280317252,220014.6397028,-26
1643280317252,220014.6397067,-21
1643280317252,220014.6397096,-26
1643280317252,220014.6397133,-28
1643280317252,220014.6397163,-23
1643280317252,220014.6397201,-21
1643280317252,220014.639723,-26
1643280317252,220014.6397259,-30
1643280317252,220014.6397288,-26
1643280317278,220014.6397325,-23
1643280317278,220014.6397363,-19
1643280317278,220014.6397392,-11
1643280317278,220014.6397445,-16
1643280317278,220014.6397475,-30
1643280317278,220014.6397523,-26
1643280317278,220014.6397568,-9
1643280317278,220014.6397617,-7
1643280317278,220014.6397646,-7
1643280317278,220014.6397675,-7
1643280317302,220014.6397704,-11
1643280317302,220014.6397743,-9
1643280317302,220014.6397783,0
1643280317302,220014.6397813,2
1643280317302,220014.639785,7
1643280317302,220014.639788,14
1643280317302,220014.6397927,16
1643280317302,220014.6397955,21
1643280317302,220014.6397985,14
1643280317302,220014.6398034,9
1643280317326,220014.6398081,14
1643280317326,220014.6398128,14
1643280317326,220014.6398173,7
1643280317326,220014.6398252,2
1643280317326,220014.6398282,-7
1643280317326,220014.6398312,-7
1643280317326,220014.6398352,4
1643280317326,220014.6398382,7
1643280317326,220014.639843,9
1643280317326,220014.639846,23
1643280317352,220014.6398507,28
1643280317352,220014.6398551,11
1643280317352,220015.287635,7
1643280317352,220015.2876484,23
1643280317827,220015.2876523,38
1643280317827,220015.2876553,30
1643280317827,220015.2876581,16
1643280317827,220015.2876608,0
1643280317827,220015.2876635,-11
1643280317827,220015.2876662,0
1643280317827,220015.2876689,9
1643280317827,220015.2876716,-14
1643280317827,220015.2876742,-92
1643280317827,220015.2876768,-140
1643280317853,220015.2876795,135
1643280317853,220015.2876822,890
1643280317853,220015.2876848,1761
1643280317853,220015.2876874,1780
1643280317853,220015.28769,449
1643280317853,220015.2876927,-656
1643280317853,220015.2876953,-311
1643280317853,220015.287698,80
1643280317853,220015.2877009,-176
1643280317853,220015.2877037,-216
1643280317880,220015.2877066,-61
1643280317880,220015.2877094,-102
1643280317880,220015.2877135,-135
1643280317880,220015.2877164,-76
1643280317880,220015.2877202,-73
1643280317880,220015.2877231,-102
1643280317880,220015.2877281,-92
1643280317880,220015.287731,-80
1643280317880,220015.2877357,-95
1643280317880,220015.2877384,-92
1643280317903,220015.2877413,-40
1643280317903,220015.2877441,23
1643280317903,220015.287747,61
1643280317903,220015.2877499,76
1643280317903,220015.2877527,69
1643280317903,220015.2877555,64
1643280317903,220015.2877583,71
1643280317903,220015.2877613,95
1643280317903,220015.2877641,135
1643280317903,220015.287767,185
1643280317926,220015.2877719,228
1643280317926,220015.2877764,233
1643280317926,220015.2877812,197
1643280317926,220015.2877856,159
1643280317926,220015.2877903,102
1643280317926,220015.2877948,26
1643280317926,220015.287799,-38
1643280317926,220015.2878019,-88
1643280317926,220015.2878048,-138
1643280317926,220015.2878076,-169
1643280317952,220015.2878106,-178
1643280317952,220015.287815,-188
1643280317952,220015.2878179,-209
1643280317952,220015.2878253,-238
1643280317952,220015.2878283,-273
1643280317952,220015.2878334,-297
1643280317952,220015.2878361,-271
1643280317952,220015.287839,-221
1643280317952,220015.2878418,-185
1643280317952,220015.2878447,-152
1643280317978,220015.2878476,-123
1643280317978,220015.2878503,-114
1643280317978,220015.2878532,-107
1643280317978,220015.287857,-90
1643280317978,220015.2878599,-80
1643280317978,220015.2878628,-83
1643280317978,220015.2878656,-76
1643280317978,220015.2878685,-66
1643280317978,220015.2878725,-71
1643280317978,220015.2878752,-61
1643280318002,220015.287878,-35
1643280318002,220015.9340203,-9
1643280318002,220015.9340336,-2
1643280318002,220015.9340374,-2
1643280318303,220015.9340664,14
1643280318303,220015.9340716,35
1643280318303,220015.934075,47
1643280318303,220015.9340778,59
1643280318303,220015.9340806,73
1643280318303,220015.9340833,80
1643280318303,220015.934086,76
1643280318303,220015.9340888,61
1643280318303,220015.9340914,57
1643280318303,220015.9340942,64
1643280318326,220015.9340969,66
1643280318326,220015.9340996,66
1643280318326,220015.9341022,69
1643280318326,220015.9341049,64
1643280318326,220015.9341076,38
1643280318326,220015.9341103,21
1643280318326,220015.9341131,30
1643280318326,220015.9341159,38
1643280318326,220015.9341189,38
1643280318326,220015.9341218,45
1643280318352,220015.9341247,54
1643280318352,220015.9341305,54
1643280318352,220015.9341335,64
1643280318352,220015.9341364,83
1643280318352,220015.9341392,95
1643280318352,220015.9341419,97
1643280318352,220015.9341447,109
1643280318352,220015.9341474,111
1643280318352,220015.9341503,97
1643280318352,220015.9341532,95
1643280318377,220015.9341561,104
1643280318377,220015.934159,107
1643280318377,220015.9341618,116
1643280318377,220015.9341647,133
1643280318377,220015.9341676,147
1643280318377,220015.9341705,152
1643280318377,220015.9341743,154
1643280318377,220015.9341773,142
1643280318377,220015.9341803,59
1643280318377,220015.9341842,7
1643280318403,220015.9341872,280
1643280318403,220015.9341909,968
1643280318403,220015.9341938,1723
1643280318403,220015.9341988,1723
1643280318403,220015.9342016,535
1643280318403,220015.9342046,-459
1643280318403,220015.9342094,-178
1643280318403,220015.9342133,161
1643280318403,220015.9342181,-61
1643280318403,220015.9342225,-97
1643280318426,220015.9342264,47
1643280318426,220015.9342293,16
1643280318426,220015.9342322,-23
1643280318426,220015.934235,14
1643280318426,220015.9342379,23
1643280318426,220015.9342408,19
1643280318426,220015.9342437,28
1643280318426,220015.9342466,28
1643280318426,220015.9342495,26
1643280318426,220015.9342539,33
1643280318451,220015.9342577,42
1643280318451,220015.9342607,49
1643280318451,220015.9342655,61
1643280318451,220015.9342683,85
1643280318451,220015.9342712,114
1643280318451,220015.9342761,142
1643280318451,220015.9342789,169
1643280318451,220015.9342818,199
1643280318451,220015.9342847,235
1643280318451,220015.9342876,247
1643280318476,220016.3896692,261
1643280318476,220016.3896818,280
1643280318476,220016.3896875,249
1643280318476,220016.3896925,171
1643280318852,220016.3896956,97
1643280318852,220016.3896984,33
1643280318852,220016.3897013,-35
1643280318852,220016.389704,-85
1643280318852,220016.3897067,-104
1643280318852,220016.3897095,-121
1643280318852,220016.3897122,-126
1643280318852,220016.3897149,-109
1643280318852,220016.3897177,-97
1643280318852,220016.3897204,-85
1643280318877,220016.3897231,-78
1643280318877,220016.3897259,-97
1643280318877,220016.3897285,-111
1643280318877,220016.3897313,-88
1643280318877,220016.389734,-57
1643280318877,220016.3897366,-54
1643280318877,220016.3897393,-54
1643280318877,220016.3897421,-35
1643280318877,220016.3897449,-16
1643280318877,220016.3897478,-11
1643280318903,220016.3897507,-11
1643280318903,220016.3897536,-9
1643280318903,220016.3897564,-7
1643280318903,220016.3897593,0
1643280318903,220016.3897622,7
1643280318903,220016.389765,11
1643280318903,220016.3897679,9
1643280318903,220016.3897708,9
1643280318903,220016.3897738,16
1643280318903,220016.3897766,26
1643280318927,220016.3897795,21
1643280318927,220016.3897823,14
1643280318927,220016.3897852,19
1643280318927,220016.3897881,19
1643280318927,220016.3897922,9
1643280318927,220016.3897952,2
1643280318927,220016.3897992,9
1643280318927,220016.3898022,14
1643280318927,220016.3898062,14
1643280318927,220016.3898092,14
1643280318951,220016.389812,9
1643280318951,220016.389815,16
1643280318951,220016.3898225,16
1643280318951,220016.3898254,7
1643280318951,220016.3898284,9
1643280318951,220016.3898313,21
1643280318951,220016.3898341,33
1643280318951,220016.3898369,49
1643280318951,220016.3898399,73
1643280318951,220016.3898429,104
1643280318976,220016.3898482,107
1643280318976,220016.3898513,104
1643280318976,220016.3898565,135
1643280318976,220016.3898609,149
1643280318976,220016.3898648,116
1643280318976,220016.3898679,85
1643280318976,220016.3898727,92
1643280318976,220016.3898771,92
1643280318976,220016.389881,80
1643280318976,220016.3898838,88
1643280319003,220016.3898867,83
1643280319003,220016.3898896,0
1643280319003,220016.3898936,-28
1643280319003,220016.3898965,288
1643280319003,220016.3898996,999
1643280319003,220016.3899044,1713
1643280319003,220016.3899073,1556
1643280319003,220016.3899123,285
1643280319003,220016.3899152,-537
1643280319003,220016.9396005,-147
1643280319026,220016.9396129,104
1643280319026,220016.9396165,-147
1643280319026,220016.9396198,-138
1643280319026,220016.9396238,-9
1643280319403,220016.9396269,-54
1643280319403,220016.9396297,-71
1643280319403,220016.9396325,-33
1643280319403,220016.9396352,-35
1643280319403,220016.939638,-35
1643280319403,220016.9396406,-11
1643280319403,220016.9396434,-7
1643280319403,220016.9396461,4
1643280319403,220016.9396488,26
1643280319403,220016.9396515,9
1643280319426,220016.9396542,-11
1643280319426,220016.9396569,26
1643280319426,220016.9396597,80
1643280319426,220016.9396623,111
1643280319426,220016.9396651,140
1643280319426,220016.9396679,178
1643280319426,220016.9396706,230
1643280319426,220016.9396733,266
1643280319426,220016.9396762,283
1643280319426,220016.9396792,307
1643280319451,220016.939682,321
1643280319451,220016.9396849,283
1643280319451,220016.9396878,216
1643280319451,220016.9396907,157
1643280319451,220016.9396936,109
1643280319451,220016.9396964,64
1643280319451,220016.9397004,26
1643280319451,220016.9397034,9
1643280319451,220016.9397083,7
1643280319451,220016.9397125,-7
1643280319476,220016.9397172,-21
1643280319476,220016.9397201,-2
1643280319476,220016.9397229,21
1643280319476,220016.9397258,28
1643280319476,220016.9397287,35
1643280319476,220016.9397316,49
1643280319476,220016.9397344,57
1643280319476,220016.9397373,64
1643280319476,220016.9397402,76
1643280319476,220016.9397451,69
1643280319502,220016.9397482,73
1643280319502,220016.9397513,92
1643280319502,220016.939756,97
1643280319502,220016.9397597,104
1643280319502,220016.9397644,116
1643280319502,220016.9397675,121
1643280319502,220016.9397723,128
1643280319502,220016.9397761,138
1643280319502,220016.9397808,128
1643280319502,220016.9397851,114
1643280319526,220016.9397899,121
1643280319526,220016.9397928,135
1643280319526,220016.9397958,140
1643280319526,220016.9398005,138
1643280319526,220016.9398047,130
1643280319526,220016.9398093,128
1643280319526,220016.9398121,133
1643280319526,220016.939815,133
1643280319526,220016.939833,126
1643280319526,220016.9398379,123
1643280319551,220016.9398408,121
1643280319551,220016.9398438,116
1643280319551,220016.9398472,119
1643280319551,220016.939851,126
1643280319551,220016.9398559,130
1643280319551,220016.9398588,128
1643280319551,220016.9398618,128
1643280319551,220016.9398647,140
1643280319551,220017.4896641,152
1643280319551,220017.4896765,157
1643280319576,220017.4896804,159
1643280319576,220017.4896856,169
1643280319576,220017.4896888,164
1643280319576,220017.4896935,152
1643280320002,220017.4896965,135
1643280320002,220017.4896994,88
1643280320002,220017.4897022,-2
1643280320002,220017.489705,2
1643280320002,220017.4897078,354
1643280320002,220017.4897104,1104
1643280320002,220017.4897132,1813
1643280320002,220017.4897158,1525
1643280320002,220017.4897185,121
1643280320002,220017.4897212,-635
1643280320027,220017.4897239,-121
1643280320027,220017.4897266,133
1643280320027,220017.4897294,-126
1643280320027,220017.4897336,-88
1643280320027,220017.4897366,40
1643280320027,220017.4897395,-14
1643280320027,220017.4897424,-26
1643280320027,220017.4897453,26
1643280320027,220017.4897492,21
1643280320027,220017.4897522,7
1643280320052,220017.4897572,33
1643280320052,220017.48976,49
1643280320052,220017.4897629,54
1643280320052,220017.4897658,73
1643280320052,220017.4897686,83
1643280320052,220017.4897716,90
1643280320052,220017.4897754,116
1643280320052,220017.4897783,152
1643280320052,220017.4897811,183
1643280320052,220017.4897841,216
1643280320076,220017.489789,254
1643280320076,220017.4897918,290
1643280320076,220017.4897947,309
1643280320076,220017.4897996,328
1643280320076,220017.4898039,338
1643280320076,220017.4898087,314
1643280320076,220017.4898116,264
1643280320076,220017.4898164,199
1643280320076,220017.4898222,123
1643280320076,220017.4898255,64
1643280320103,220017.4898283,21
1643280320103,220017.4898312,-14
1643280320103,220017.4898363,-38
1643280320103,220017.4898392,-47
1643280320103,220017.4898422,-49
1643280320103,220017.4898451,-47
1643280320103,220017.4898494,-35
1643280320103,220017.4898523,-28
1643280320103,220017.4898573,-28
1643280320103,220017.4898601,-19
1643280320127,220017.4898631,-11
1643280320127,220017.4898681,-9
1643280320127,220017.489871,-9
1643280320127,220017.4898746,-2
1643280320127,220017.4898794,11
1643280320127,220017.4898824,14
1643280320127,220017.4898855,2
1643280320127,220017.4898904,-2
1643280320127,220017.4898949,4
1643280320127,220017.4898997,16
1643280320151,220017.489904,16
1643280320151,220017.4899078,2
1643280320151,220017.4899109,-9
1643280320151,220017.4899162,-9
1643280320151,220017.4899191,-2
1643280320151,220017.489923,-11
1643280320151,220017.4899259,-28
1643280320151,220018.0903252,-23
1643280320151,220018.0903392,-7
1643280320151,220018.090343,-9
1643280320176,220018.0903479,-23
1643280320176,220018.0903509,-28
1643280320176,220018.0903557,-21
1643280320176,220018.0903586,-11
1643280320502,220018.0903615,-7
1643280320502,220018.0903643,-9
1643280320502,220018.090367,-26
1643280320502,220018.0903697,-45
1643280320502,220018.0903725,-52
1643280320502,220018.0903752,-49
1643280320502,220018.0903778,-40
1643280320502,220018.0903805,-38
1643280320502,220018.0903832,-30
1643280320502,220018.0903859,-21
1643280320530,220018.0903885,-19
1643280320530,220018.0903913,-21
1643280320530,220018.090394,-57
1643280320530,220018.0903967,-140
1643280320530,220018.0903993,-95
1643280320530,220018.0904021,333
1643280320530,220018.0904048,1140
1643280320530,220018.0904077,1797
1643280320530,220018.0904105,1294
1643280320530,220018.0904134,-140
1643280320554,220018.0904174,-616
1643280320554,220018.0904204,-40
1643280320554,220018.0904233,42
1643280320554,220018.0904464,-214
1643280320554,220018.0904535,-111
1643280320554,220018.0904583,-19
1643280320554,220018.0904613,-95
1643280320554,220018.0904654,-69
1643280320554,220018.0904691,-14
1643280320554,220018.0904721,-38
1643280320577,220018.090476,-38
1643280320577,220018.090479,-7
1643280320577,220018.0904837,0
1643280320577,220018.0904881,2
1643280320577,220018.090493,16
1643280320577,220018.0904964,16
1643280320577,220018.0905003,23
1643280320577,220018.0905032,54
1643280320577,220018.0905081,69
1643280320577,220018.0905117,97
1643280320602,220018.0905147,173
1643280320602,220018.0905176,223
1643280320602,220018.0905205,230
1643280320602,220018.0905235,254
1643280320602,220018.0905265,271
1643280320602,220018.0905294,254
1643280320602,220018.0905322,214
1643280320602,220018.0905351,159
1643280320602,220018.090538,102
1643280320602,220018.0905421,52
1643280320629,220018.090545,14
1643280320629,220018.0905479,-40
1643280320629,220018.0905509,-99
1643280320629,220018.0905547,-111
1643280320629,220018.0905577,-107
1643280320629,220018.0905614,-142
1643280320629,220018.0905644,-169
1643280320629,220018.0905693,-149
1643280320629,220018.0905737,-126
1643280320629,220018.0905788,-111
1643280320653,220018.0905818,-92
1643280320653,220018.0905866,-102
1643280320653,220018.0905894,-142
1643280320653,220018.0905923,-164
1643280320653,220018.0905953,-140
1643280320653,220018.0905992,-116
1643280320653,220018.5896526,-159
1643280320653,220018.5896661,-218
1643280320653,220018.5896712,-188
1643280320653,220018.5896764,-128
1643280320681,220018.5896796,-142
1643280320681,220018.5896836,-171
1643280320681,220018.5896868,-154
1643280320681,220018.5896914,-152
1643280321052,220018.5896955,-192
1643280321052,220018.5896985,-230
1643280321052,220018.5897013,-211
1643280321052,220018.5897041,-161
1643280321052,220018.5897069,-145
1643280321052,220018.5897097,-152
1643280321052,220018.5897124,-159
1643280321052,220018.5897152,-164
1643280321052,220018.589718,-173
1643280321052,220018.5897208,-195
1643280321076,220018.5897238,-216
1643280321076,220018.5897266,-216
1643280321076,220018.5897294,-183
1643280321076,220018.5897323,-149
1643280321076,220018.5897352,-166
1643280321076,220018.5897381,-185
1643280321076,220018.5897409,-166
1643280321076,220018.5897438,-164
1643280321076,220018.5897469,-185
1643280321076,220018.589752,-180
1643280321102,220018.589755,-164
1643280321102,220018.589758,-149
1643280321102,220018.589762,-128
1643280321102,220018.5897651,-114
1643280321102,220018.58977,-102
1643280321102,220018.5897748,-107
1643280321102,220018.5897797,-126
1643280321102,220018.5897825,-109
1643280321102,220018.5897856,-85
1643280321102,220018.5897904,-159
1643280321128,220018.589795,-238
1643280321128,220018.589799,-11
1643280321128,220018.5898021,626
1643280321128,220018.5898069,1392
1643280321128,220018.5898098,1592
1643280321128,220018.5898129,597
1643280321128,220018.5898178,-516
1643280321128,220018.5898231,-359
1643280321128,220018.5898263,57
1643280321128,220018.5898293,-147
1643280321152,220018.5898321,-214
1643280321152,220018.5898352,-52
1643280321152,220018.5898388,-109
1643280321152,220018.5898429,-161
1643280321152,220018.5898459,-38
1643280321152,220018.5898489,-19
1643280321152,220018.589852,-83
1643280321152,220018.5898555,-40
1643280321152,220018.5898608,-4
1643280321152,220018.5898639,-47
1643280321176,220018.5898682,-33
1643280321176,220018.5898712,64
1643280321176,220018.5898743,154
1643280321176,220018.5898773,235
1643280321176,220018.5898811,318
1643280321176,220018.5898842,361
1643280321176,220018.5898882,416
1643280321176,220018.5898914,537
1643280321176,220018.5898965,611
1643280321176,220018.5898995,533
1643280321201,220018.5899023,321
1643280321201,220018.5899051,218
1643280321201,220018.589908,368
1643280321201,220018.5899108,395
1643280321201,220018.5899137,185
1643280321201,220019.1397591,88
1643280321201,220019.1397703,99
1643280321201,220019.139774,42
1643280321201,220019.1397805,-33
1643280321201,220019.1397837,-45
1643280321228,220019.1397876,-52
1643280321228,220019.1397905,-90
1643280321228,220019.1397933,-121
1643280321228,220019.1397961,-116
1643280321652,220019.1397989,-99
1643280321652,220019.1398017,-102
1643280321652,220019.1398045,-119
1643280321652,220019.1398072,-123
1643280321652,220019.13981,-97
1643280321652,220019.1398127,-49
1643280321652,220019.1398154,-38
1643280321652,220019.1398331,-30
1643280321652,220019.1398362,16
1643280321652,220019.1399049,45
1643280321677,220019.1399126,57
1643280321677,220019.1399163,126
1643280321677,220019.1399195,226
1643280321677,220019.1399224,271
1643280321677,220019.1399253,249
1643280321677,220019.1399281,185
1643280321677,220019.1399309,109
1643280321677,220019.1399337,47
1643280321677,220019.1399366,-21
1643280321677,220019.1399394,-45
1643280321702,220019.1399421,-2
1643280321702,220019.139945,7
1643280321702,220019.1399477,-30
1643280321702,220019.1399505,-30
1643280321702,220019.1399533,28
1643280321702,220019.1399561,71
1643280321702,220019.1399588,49
1643280321702,220019.1399617,11
1643280321702,220019.1399644,49
1643280321702,220019.1399671,152
1643280321729,220019.1399699,166
1643280321729,220019.1399727,111
1643280321729,220019.1399754,138
1643280321729,220019.1399787,185
1643280321729,220019.1399815,183
1643280321729,220019.1399842,180
1643280321729,220019.1399871,152
1643280321729,220019.1399898,130
1643280321729,220019.1399926,161
1643280321729,220019.1399954,183
1643280321753,220019.1399982,149
1643280321753,220019.140001,107
1643280321753,220019.1400038,97
1643280321753,220019.1400066,128
1643280321753,220019.1400093,126
1643280321753,220019.1400121,64
1643280321753,220019.1400148,-4
1643280321753,220019.1400178,-28
1643280321753,220019.1400206,104
1643280321753,220019.1400234,566
1643280321776,220019.1400262,1311
1643280321776,220019.1400291,1685
1643280321776,220019.1400319,845
1643280321776,220019.1400346,-399
1643280321776,220019.1400374,-464
1643280321776,220019.1400402,42
1643280321776,220019.1400431,-9
1643280321776,220019.1400459,-140
1643280321776,220019.1400487,-21
1643280321776,220019.1400515,-7
1643280321801,220019.1400543,-71
1643280321801,220019.1400572,-42
1643280321801,220019.14006,-26
1643280321801,220019.140063,-30
1643280321801,220019.7395736,21
1643280321801,220019.7395869,47
1643280321801,220019.7395907,14
1643280321801,220019.7395958,11
1643280321801,220019.7395989,42
1643280321801,220019.7396038,38
1643280321828,220019.7396068,21
1643280321828,220019.7396098,40
1643280321828,220019.7396139,78
1643280321828,220019.7396169,107
1643280322226,220019.739622,159
1643280322226,220019.7396249,188
1643280322226,220019.7396278,173
1643280322226,220019.7396306,188
1643280322226,220019.7396334,204
1643280322226,220019.7396362,192
1643280322226,220019.7396391,183
1643280322226,220019.7396418,157
1643280322226,220019.7396446,71
1643280322226,220019.7396475,-7
1643280322252,220019.7396503,-42
1643280322252,220019.7396531,-97
1643280322252,220019.7396559,-130
1643280322252,220019.7396587,-102
1643280322252,220019.7396615,-111
1643280322252,220019.7396645,-135
1643280322252,220019.7396675,-88
1643280322252,220019.7396704,-61
1643280322252,220019.7396733,-126
1643280322252,220019.7396763,-171
1643280322279,220019.7396804,-133
1643280322279,220019.7396834,-90
1643280322279,220019.7396864,-95
1643280322279,220019.7396893,-95
1643280322279,220019.7396933,-83
1643280322279,220019.7396963,-99
1643280322279,220019.7396993,-102
1643280322279,220019.7397023,-83
1643280322279,220019.7397074,-92
1643280322279,220019.7397102,-83
1643280322302,220019.7397132,-52
1643280322302,220019.7397162,-71
1643280322302,220019.7397192,-126
1643280322302,220019.7397221,-128
1643280322302,220019.7397262,-99
1643280322302,220019.7397292,-99
1643280322302,220019.7397328,-116
1643280322302,220019.7397358,-138
1643280322302,220019.7397388,-183
1643280322302,220019.7397437,-154
1643280322326,220019.7397477,-30
1643280322326,220019.7397518,-11
1643280322326,220019.7397548,-73
1643280322326,220019.7397589,-45
1643280322326,220019.7397619,4
1643280322326,220019.7397667,-9
1643280322326,220019.7397714,-30
1643280322326,220019.7397754,-35
1643280322326,220019.7397785,-26
1643280322326,220019.7397833,7
1643280322352,220019.7397875,7
1643280322352,220019.7397915,-35
1643280322352,220019.7397946,-35
1643280322352,220019.7397986,4
1643280322352,220019.7398016,26
1643280322352,220019.7398065,7
1643280322352,220019.7398108,-54
1643280322352,220019.7399289,-35
1643280322352,220019.7399449,321
1643280322352,220019.7399494,1064
1643280322377,220019.7399529,1785
1643280322377,220019.7399558,1575
1643280322377,220019.7399587,238
1643280322377,220020.334156,-599
1643280322377,220020.3341699,-171
1643280322377,220020.3341738,169
1643280322377,220020.3341791,-9
1643280322377,220020.3341822,-35
1643280322377,220020.3341869,30
1643280322377,220020.3341899,-11
1643280322402,220020.3341945,16
1643280322402,220020.3341976,80
1643280322402,220020.3342022,38
1643280322402,220020.3342052,21
1643280322777,220020.3342098,45
1643280322777,220020.3342128,0
1643280322777,220020.3342156,-14
1643280322777,220020.3342184,45
1643280322777,220020.3342213,92
1643280322777,220020.334224,123
1643280322777,220020.3342267,138
1643280322777,220020.3342295,140
1643280322777,220020.3342322,159
1643280322777,220020.3342349,178
1643280322802,220020.3342376,185
1643280322802,220020.3342402,228
1643280322802,220020.334243,283
1643280322802,220020.3342457,278
1643280322802,220020.3342485,259
1643280322802,220020.3342512,249
1643280322802,220020.3342539,199
1643280322802,220020.3342566,119
1643280322802,220020.3342593,21
1643280322802,220020.3342621,-64
1643280322826,220020.3342648,-92
1643280322826,220020.3342676,-95
1643280322826,220020.3342703,-107
1643280322826,220020.3342731,-142
1643280322826,220020.3342759,-202
1643280322826,220020.3342787,-218
1643280322826,220020.3342814,-166
1643280322826,220020.3342842,-107
1643280322826,220020.3342869,-104
1643280322826,220020.3342897,-164
1643280322852,220020.3342924,-173
1643280322852,220020.3342953,-83
1643280322852,220020.3343005,-35
1643280322852,220020.3343044,-116
1643280322852,220020.3343075,-180
1643280322852,220020.3343116,-90
1643280322852,220020.3343146,16
1643280322852,220020.3343198,-135
1643280322852,220020.3343228,-340
1643280322852,220020.3343258,-266
1643280322877,220020.3343306,-195
1643280322877,220020.3343335,-323
1643280322877,220020.3343362,-409
1643280322877,220020.3343392,-452
1643280322877,220020.3343441,-747
1643280322877,220020.3343478,-1175
1643280322877,220020.3343526,-1290
1643280322877,220020.3343572,-1097
1643280322877,220020.334362,-864
1643280322877,220020.3343665,-602
1643280322903,220020.3343713,-347
1643280322903,220020.3343741,-211
1643280322903,220020.3343771,-176
1643280322903,220020.3343819,-190
1643280322903,220020.3343865,-164
1643280322903,220020.3343911,-19
1643280322903,220020.3343956,64
1643280322903,220020.3344002,-47
1643280322903,220020.3344045,-99
1643280322903,220020.3344092,7
1643280322927,220020.3344136,59
1643280322927,220020.3344175,4
1643280322927,220020.884935,-40
1643280322927,220020.884948,-59
1643280322927,220020.8849516,-23
1643280322927,220020.8849548,209
1643280322927,220020.8849577,702
1643280322927,220020.8849606,1425
1643280322927,220020.8849635,1859
1643280322927,220020.8849664,1080
1643280322952,220020.8849692,-280
1643280322952,220020.8849721,-514
1643280322952,220020.884975,49
1643280322952,220020.8849778,123
1643280323302,220020.8849807,-85
1643280323302,220020.8849836,-57
1643280323302,220020.8849865,119
1643280323302,220020.8849893,226
1643280323302,220020.8849922,54
1643280323302,220020.884995,-230
1643280323302,220020.8849979,-133
1643280323302,220020.8850007,107
1643280323302,220020.8850036,28
1643280323302,220020.8850064,-61
1643280323326,220020.8850093,30
1643280323326,220020.8850121,95
1643280323326,220020.8850149,140
1643280323326,220020.8850178,176
1643280323326,220020.8850206,104
1643280323326,220020.8850234,85
1643280323326,220020.8850263,211
1643280323326,220020.8850291,352
1643280323326,220020.885032,349
1643280323326,220020.8850348,223
1643280323353,220020.8850381,202
1643280323353,220020.8850413,330
1643280323353,220020.8850442,390
1643280323353,220020.885047,268
1643280323353,220020.8850499,83
1643280323353,220020.8850528,61
1643280323353,220020.8850559,109
1643280323353,220020.8850589,-30
1643280323353,220020.8850617,-133
1643280323353,220020.8850647,9
1643280323378,220020.8850676,164
1643280323378,220020.8850705,88
1643280323378,220020.8850734,-64
1643280323378,220020.8850764,-9
1643280323378,220020.8850792,85
1643280323378,220020.8850822,57
1643280323378,220020.8850852,66
1643280323378,220020.885088,76
1643280323378,220020.8850909,52
1643280323378,220020.8850937,130
1643280323401,220020.8850966,178
1643280323401,220020.8850994,-4
1643280323401,220020.8851023,-204
1643280323401,220020.8851052,-188
1643280323401,220020.8851081,-161
1643280323401,220020.8851113,-257
1643280323401,220020.8851142,-242
1643280323401,220020.8851171,-99
1643280323401,220020.8851199,-38
1643280323401,220020.8851228,-138
1643280323426,220020.8851257,-345
1643280323426,220020.8851286,-371
1643280323426,220020.8851317,-185
1643280323426,220020.8851365,-209
1643280323426,220020.8851397,-311
1643280323426,220020.8851439,-249
1643280323426,220020.8851472,-271
1643280323426,220020.8851535,-299
1643280323426,220020.8851567,-259
1643280323426,220020.88516,-357
1643280323452,220020.8851651,-388
1643280323452,220021.3896453,-209
1643280323452,220021.3896565,-159
1643280323452,220021.3896604,-230
1643280323452,220021.3896635,-159
1643280323452,220021.3896665,-88
1643280323452,220021.3896695,-140
1643280323452,220021.3896724,-183
1643280323452,220021.3896764,-216
1643280323452,220021.3896803,-285
1643280323476,220021.3896834,-385
1643280323476,220021.3896864,-421
1643280323476,220021.3896894,-7
1643280323476,220021.3896924,964
1643280323852,220021.3896955,1511
1643280323852,220021.3896984,466
1643280323852,220021.3897014,-1047
1643280323852,220021.3897043,-947
1643280323852,220021.3897073,-171
1643280323852,220021.3897102,-335
1643280323852,220021.3897135,-623
1643280323852,220021.3897164,-383
1643280323852,220021.3897193,-223
1643280323852,220021.3897222,-352
1643280323877,220021.3897251,-492
1643280323877,220021.389728,-411
1643280323877,220021.3897309,-188
1643280323877,220021.3897339,-180
1643280323877,220021.3897369,-290
1643280323877,220021.3897406,-252
1643280323877,220021.3897446,-238
1643280323877,220021.3897478,-285
1643280323877,220021.3897507,-226
1643280323877,220021.3897536,-138
1643280323901,220021.3897565,-157
1643280323901,220021.3897595,-161
1643280323901,220021.3897624,-66
1643280323901,220021.3897654,9
1643280323901,220021.3897683,66
1643280323901,220021.3897713,152
1643280323901,220021.3897742,171
1643280323901,220021.3897772,107
1643280323901,220021.3897801,109
1643280323901,220021.389783,161
1643280323927,220021.389786,80
1643280323927,220021.389789,-64
1643280323927,220021.3897921,-140
1643280323927,220021.389795,-223
1643280323927,220021.3897981,-223
1643280323927,220021.389801,-97
1643280323927,220021.3898067,-109
1643280323927,220021.3898118,-214
1643280323927,220021.3898274,-166
1643280323927,220021.3898318,-85
1643280323953,220021.3898351,-116
1643280323953,220021.3898381,-169
1643280323953,220021.3898411,-192
1643280323953,220021.389844,-195
1643280323953,220021.389847,-154
1643280323953,220021.38985,-130
1643280323953,220021.3898529,-180
1643280323953,220021.3898559,-197
1643280323953,220021.3898589,-123
1643280323953,220021.3898618,-71
1643280323977,220021.3898648,-47
1643280323977,220021.3898677,-4
1643280323977,220021.3898707,-57
1643280323977,220021.3898736,-190
1643280323977,220021.3898765,-164
1643280323977,220021.3898974,-23
1643280323977,220021.3899047,4
1643280323977,220021.3899084,-28
1643280323977,220021.3899115,-28
1643280323977,220021.3899145,-35
1643280324001,220021.9395703,-78
1643280324001,220021.9395829,-123
1643280324001,220021.9395865,-23
1643280324001,220021.9395918,78
1643280324001,220021.9395947,-104
1643280324001,220021.9395986,-240
1643280324001,220021.9396016,-88
1643280324001,220021.9396062,-2
1643280324001,220021.939609,-97
1643280324001,220021.9396119,-221
1643280324026,220021.939615,-204
1643280324026,220021.9396198,-35
1643280324026,220021.9396238,64
1643280324026,220021.9396285,14
1643280324451,220021.9396329,-90
1643280324451,220021.9396357,-176
1643280324451,220021.9396384,-218
1643280324451,220021.9396412,-73
1643280324451,220021.9396439,433
1643280324451,220021.9396467,1235
1643280324451,220021.9396493,1663
1643280324451,220021.939652,787
1643280324451,220021.9396548,-487
1643280324451,220021.9396575,-388
1643280324477,220021.9396603,199
1643280324477,220021.939663,-30
1643280324477,220021.9396656,-288
1643280324477,220021.9396684,-128
1643280324477,220021.9396712,-88
1643280324477,220021.9396739,-104
1643280324477,220021.9396766,54
1643280324477,220021.9396795,80
1643280324477,220021.9396823,-126
1643280324477,220021.9396853,-202
1643280324502,220021.9396902,-85
1643280324502,220021.9396932,-42
1643280324502,220021.9396971,-114
1643280324502,220021.9397,-145
1643280324502,220021.9397048,-102
1643280324502,220021.9397076,-73
1643280324502,220021.9397105,-90
1643280324502,220021.9397134,-42
1643280324502,220021.9397163,104
1643280324502,220021.9397211,199
1643280324526,220021.9397241,211
1643280324526,220021.939729,230
1643280324526,220021.9397337,276
1643280324526,220021.9397376,395
1643280324526,220021.9397405,487
1643280324526,220021.9397434,399
1643280324526,220021.9397463,278
1643280324526,220021.9397491,285
1643280324526,220021.939752,276
1643280324526,220021.9397568,159
1643280324552,220021.9397614,99
1643280324552,220021.9397662,128
1643280324552,220021.9397692,126
1643280324552,220021.939772,99
1643280324552,220021.9397749,52
1643280324552,220021.9397778,35
1643280324552,220021.9397806,128
1643280324552,220021.9397844,183
1643280324552,220021.9397873,97
1643280324552,220021.9397901,57
1643280324578,220021.939793,116
1643280324578,220021.9397978,149
1643280324578,220021.9398024,142
1643280324578,220021.9398073,114
1643280324578,220021.9398101,49
1643280324578,220021.939813,52
1643280324578,220021.9398159,138
1643280324578,220021.9398212,133
1643280324578,220021.9398244,35
1643280324578,220022.5383782,40
1643280324601,220022.5383891,126
1643280324601,220022.5383946,116
1643280324601,220022.538401,49
1643280324601,220022.538405,40
1643280324601,220022.538408,16
1643280324601,220022.5384111,-14
1643280324601,220022.5384141,28
1643280324601,220022.5384173,16
1643280324601,220022.5384204,-64
1643280324601,220022.5384256,-19
1643280324627,220022.5384303,38
1643280324627,220022.5384355,0
1643280324627,220022.5384398,7
1643280324627,220022.5384453,7
1643280325077,220022.5384485,-59
1643280325077,220022.5384515,-69
1643280325077,220022.5384544,-38
1643280325077,220022.5384573,-40
1643280325077,220022.5384603,-64
1643280325077,220022.5384631,-69
1643280325077,220022.538466,-66
1643280325077,220022.5384689,-152
1643280325077,220022.5384718,-230
1643280325077,220022.5384747,49
1643280325102,220022.5384777,785
1643280325102,220022.5384806,1613
1643280325102,220022.5384834,1690
1643280325102,220022.5384863,495
1643280325102,220022.5384895,-623
1643280325102,220022.5384924,-380
1643280325102,220022.5384953,49
1643280325102,220022.5384984,-183
1643280325102,220022.5385025,-302
1643280325102,220022.5385056,-140
1643280325126,220022.5385108,-109
1643280325126,220022.5385156,-123
1643280325126,220022.5385207,-78
1643280325126,220022.5385249,-107
1643280325126,220022.53853,-166
1643280325126,220022.5385331,-157
1643280325126,220022.5385372,-130
1643280325126,220022.5385404,-107
1643280325126,220022.5385443,-83
1643280325126,220022.5385474,-119
1643280325152,220022.5385514,-78
1643280325152,220022.5385546,42
1643280325152,220022.5385594,40
1643280325152,220022.5385626,0
1643280325152,220022.5385676,73
1643280325152,220022.5385708,176
1643280325152,220022.5385758,209
1643280325152,220022.5385789,161
1643280325152,220022.538582,157
1643280325152,220022.5385871,252
1643280325178,220022.5385916,271
1643280325178,220022.5385966,140
1643280325178,220022.5385998,40
1643280325178,220022.5386047,16
1643280325178,220022.5386082,-49
1643280325178,220022.5386133,-135
1643280325178,220022.5386181,-171
1643280325178,220022.538623,-173
1643280325178,220022.5386264,-154
1643280325178,220022.5386296,-107
1643280325203,220022.5386347,-66
1643280325203,220022.5386378,-78
1643280325203,220022.5386429,-97
1643280325203,220022.5386474,-38
1643280325203,220022.5386525,0
1643280325203,220022.5386571,-71
1643280325203,220022.538662,-83
1643280325203,220022.5386654,11
1643280325203,220023.1854962,76
1643280325203,220023.1855082,90
1643280325227,220023.1855119,73
1643280325227,220023.185517,49
1643280325227,220023.18552,76
1643280325227,220023.185523,126
1643280325227,220023.1855279,116
1643280325227,220023.1855308,40
1643280325227,220023.1855338,7
1643280325227,220023.1855387,57
1643280325227,220023.1855416,85
1643280325227,220023.1855451,42
1643280325252,220023.1855498,33
1643280325252,220023.1855529,85
1643280325252,220023.1855559,97
1643280325252,220023.1855607,99
1643280325550,220023.1855638,152
1643280325550,220023.1855667,142
1643280325550,220023.1855695,45
1643280325550,220023.1855724,-16
1643280325550,220023.1855753,42
1643280325550,220023.185578,128
1643280325550,220023.1855808,142
1643280325550,220023.1855835,128
1643280325550,220023.1855862,59
1643280325550,220023.185589,-30
1643280325577,220023.1855917,-30
1643280325577,220023.1855944,-35
1643280325577,220023.1855972,-128
1643280325577,220023.1855999,-19
1643280325577,220023.1856027,518
1643280325577,220023.1856054,1292
1643280325577,220023.1856082,1835
1643280325577,220023.1856111,1228
1643280325577,220023.1856161,-266
1643280325577,220023.1856188,-645
1643280325600,220023.1856219,83
1643280325600,220023.1856256,111
1643280325600,220023.1856287,-252
1643280325600,220023.1856334,-114
1643280325600,220023.1856382,42
1643280325600,220023.1856429,-14
1643280325600,220023.1856458,-28
1643280325600,220023.1856488,-66
1643280325600,220023.1856535,-114
1643280325600,220023.1856564,-23
1643280325626,220023.1856594,11
1643280325626,220023.1856633,-71
1643280325626,220023.1856662,-2
1643280325626,220023.1856703,195
1643280325626,220023.1856733,202
1643280325626,220023.1856784,61
1643280325626,220023.1856814,49
1643280325626,220023.1856854,142
1643280325626,220023.1856884,176
1643280325626,220023.1856932,169
1643280325651,220023.1856963,183
1643280325651,220023.1857011,247
1643280325651,220023.1857041,323
1643280325651,220023.1857071,302
1643280325651,220023.1857111,245
1643280325651,220023.185714,247
1643280325651,220023.1857169,223
1643280325651,220023.1857218,133
1643280325651,220023.1857256,14
1643280325651,220023.1857286,-71
1643280325675,220023.1857316,-78
1643280325675,220023.1857345,-61
1643280325675,220023.1857382,-57
1643280325675,220023.1857412,-85
1643280325675,220023.1857461,-121
1643280325675,220023.1857491,-111
1643280325675,220023.1857539,-95
1643280325675,220023.6396921,-92
1643280325675,220023.6397037,-92
1643280325675,220023.6397075,-135
1643280325701,220023.6397125,-135
1643280325701,220023.6397158,2
1643280325701,220023.639721,83
1643280325701,220023.6397242,26
1643280325701,220023.639729,7
1643280325701,220023.6397328,-14
1643280325701,220023.6397378,-54
1643280325701,220023.6397425,33
1643280325701,220023.6397473,85
1643280325701,220023.6397504,-47
1643280325726,220023.6397535,-92
1643280325726,220023.6397584,-7
1643280325726,220023.6397615,26
1643280325726,220023.6397663,35
1643280326150,220023.6397694,-16
1643280326150,220023.6397723,-119
1643280326150,220023.6397752,-104
1643280326150,220023.6397781,-26
1643280326150,220023.6397811,-28
1643280326150,220023.6397839,-45
1643280326150,220023.6397868,-23
1643280326150,220023.6397896,-7
1643280326150,220023.6397925,11
1643280326150,220023.6397953,76
1643280326175,220023.6397981,128
1643280326175,220023.6398009,85
1643280326175,220023.6398038,30
1643280326175,220023.6398068,28
1643280326175,220023.6398108,7
1643280326175,220023.6398139,7
1643280326175,220023.6398206,49
1643280326175,220023.6398238,-2
1643280326175,220023.6398269,-123
1643280326175,220023.6398308,28
1643280326201,220023.6398339,673
1643280326201,220023.6398389,1523
1643280326201,220023.6398435,1756
1643280326201,220023.6398483,695
1643280326201,220023.6398513,-537
1643280326201,220023.6398562,-440
1643280326201,220023.6398607,4
1643280326201,220023.6398656,-183
1643280326201,220023.6398837,-216
1643280326201,220023.6398891,-14
1643280326227,220023.6398923,-80
1643280326227,220023.6398972,-164
1643280326227,220023.6399002,-88
1643280326227,220023.6399145,-59
1643280326227,220023.6399297,-66
1643280326227,220023.6399366,-57
1643280326227,220023.6399401,-33
1643280326227,220023.6399451,116
1643280326227,220023.6399485,154
1643280326227,220023.6399533,-123
1643280326250,220023.6399578,-214
1643280326250,220023.6399626,-11
1643280326250,220023.6399667,26
1643280326250,220023.6399716,-76
1643280326250,220023.6399747,-59
1643280326250,220023.6399803,14
1643280326250,220023.6399832,59
1643280326250,220023.6399862,149
1643280326250,220023.6399906,221
1643280326250,220023.6399939,188
1643280326276,220023.6399969,133
1643280326276,220023.6399997,19
1643280326276,220023.6400085,-147
1643280326276,220023.6400207,-171
1643280326276,220023.6400299,-142
1643280326276,220023.6400385,-238
1643280326276,220024.238971,-316
1643280326276,220024.2389874,-297
1643280326276,220024.2389922,-271
1643280326276,220024.239011,-254
1643280326302,220024.2390172,-238
1643280326302,220024.2390202,-249
1643280326302,220024.2390229,-273
1643280326302,220024.2390257,-223
1643280326302,220024.2390284,-119
1643280326302,220024.239031,-166
1643280326302,220024.2390853,-309
1643280326302,220024.2390932,-245
1643280326302,220024.2390967,-104
1643280326302,220024.2390995,-154
1643280326326,220024.2391022,-226
1643280326326,220024.239105,-197
1643280326326,220024.2391077,-199
1643280326326,220024.2391104,-230
1643280326703,220024.2391138,-195
1643280326703,220024.2391166,-145
1643280326703,220024.2391193,-183
1643280326703,220024.2391229,-154
1643280326703,220024.2391261,14
1643280326703,220024.2391289,19
1643280326703,220024.2391316,-145
1643280326703,220024.2391344,-154
1643280326703,220024.2391373,47
1643280326703,220024.2391401,176
1643280326728,220024.2391428,66
1643280326728,220024.2391456,-35
1643280326728,220024.2391483,140
1643280326728,220024.239151,349
1643280326728,220024.2391537,264
1643280326728,220024.2391565,138
1643280326728,220024.2391593,230
1643280326728,220024.239162,292
1643280326728,220024.2391647,197
1643280326728,220024.2391676,119
1643280326751,220024.2391705,109
1643280326751,220024.2391732,90
1643280326751,220024.2391761,47
1643280326751,220024.2391788,-26
1643280326751,220024.2391816,-140
1643280326751,220024.2391843,-140
1643280326751,220024.2391871,228
1643280326751,220024.2391899,952
1643280326751,220024.2391926,1625
1643280326751,220024.239222,1397
1643280326776,220024.2392361,73
1643280326776,220024.2392405,-702
1643280326776,220024.2392437,-230
1643280326776,220024.2392498,-42
1643280326776,220024.2392526,-371
1643280326776,220024.2392555,-266
1643280326776,220024.2392585,-49
1643280326776,220024.2392613,-183
1643280326776,220024.2392643,-273
1643280326776,220024.2392673,-173
1643280326803,220024.2392711,-140
1643280326803,220024.239274,-176
1643280326803,220024.2392769,-209
1643280326803,220024.2392798,-257
1643280326803,220024.2392849,-228
1643280326803,220024.2392878,-123
1643280326803,220024.2392907,-61
1643280326803,220024.2392935,-102
1643280326803,220024.2392963,-197
1643280326803,220024.2392992,-185
1643280326826,220024.239302,-35
1643280326826,220024.2393049,52
1643280326826,220024.2393078,42
1643280326826,220024.2393107,52
1643280326826,220024.2393135,107
1643280326826,220024.7897128,138
1643280326826,220024.7897252,92
1643280326826,220024.7897303,35
1643280326826,220024.7897354,61
1643280326826,220024.7897383,104
1643280326850,220024.7897414,-21
1643280326850,220024.7897462,-226
1643280326850,220024.7897505,-207
1643280326850,220024.7897552,-76
1643280326850,220024.7897593,-107
1643280326850,220024.789764,-173
1643280326850,220024.7897686,-147
1643280326850,220024.7897736,-128
1643280326850,220024.7897767,-173
1643280326850,220024.7897813,-235
1643280326876,220024.7897842,-221
1643280326876,220024.7897873,-140
1643280326876,220024.7897919,-119
1643280326876,220024.7897963,-161
1643280327252,220024.789801,-173
1643280327252,220024.7898046,-166
1643280327252,220024.7898074,-180
1643280327252,220024.7898102,-180
1643280327252,220024.789813,-164
1643280327252,220024.7898159,-188
1643280327252,220024.7898187,-185
1643280327252,220024.7898215,-126
1643280327252,220024.7898243,-71
1643280327252,220024.7898272,49
1643280327276,220024.78983,154
1643280327276,220024.7898328,92
1643280327276,220024.7898356,9
1643280327276,220024.7898384,7
1643280327276,220024.7898412,19
1643280327276,220024.789844,14
1643280327276,220024.7898468,9
1643280327276,220024.7898498,-9
1643280327276,220024.7898528,-16
1643280327276,220024.7898577,45
1643280327302,220024.7898623,107
1643280327302,220024.7898673,61
1643280327302,220024.7898718,-26
1643280327302,220024.7898766,-40
1643280327302,220024.7898796,-9
1643280327302,220024.7898843,-21
1643280327302,220024.7898888,-33
1643280327302,220024.7898935,26
1643280327302,220024.7898964,85
1643280327302,220024.7898994,64
1643280327327,220024.7899042,40
1643280327327,220024.7899088,40
1643280327327,220024.7899127,21
1643280327327,220024.7899158,111
1643280327327,220024.7899205,554
1643280327327,220024.7899252,1375
1643280327327,220024.7899298,1904
1643280327327,220024.7899329,1116
1643280327327,220024.7899375,-285
1643280327327,220024.789942,-452
1643280327351,220024.7899491,107
1643280327351,220024.7899522,40
1643280327351,220024.7899553,-135
1643280327351,220024.7899602,-7
1643280327351,220024.7899648,21
1643280327351,220024.7899698,-49
1643280327351,220024.7899727,-19
1643280327351,220024.7899776,16
1643280327351,220024.7899807,-9
1643280327351,220024.7899854,-11
1643280327376,220024.78999,11
1643280327376,220024.7899948,7
1643280327376,220024.7899977,-4
1643280327376,220024.7900008,33
1643280327376,220025.3396989,85
1643280327376,220025.3397116,83
1643280327376,220025.3397171,49
1643280327376,220025.3397224,99
1643280327376,220025.3397254,188
1643280327376,220025.3397284,180
1643280327402,220025.3397332,164
1643280327402,220025.3397361,226
1643280327402,220025.3397391,264
1643280327402,220025.339743,271
1643280327402,220025.3397459,295
1643280327402,220025.3397499,216
1643280327402,220025.3397527,69
1643280327402,220025.3397556,9
1643280327402,220025.3397584,2
1643280327402,220025.3397613,-42
1643280327426,220025.3397653,-111
1643280327426,220025.3397682,-171
1643280327426,220025.3397721,-211
1643280327426,220025.3397751,-204
1643280327825,220025.3397789,-169
1643280327825,220025.3397818,-180
1643280327825,220025.3397845,-209
1643280327825,220025.3397872,-195
1643280327825,220025.3397899,-183
1643280327825,220025.3397926,-190
1643280327825,220025.3397953,-192
1643280327825,220025.339798,-176
1643280327825,220025.3398007,-149
1643280327825,220025.3398034,-133
1643280327853,220025.3398062,-128
1643280327853,220025.3398088,-121
1643280327853,220025.3398115,-92
1643280327853,220025.3398143,-76
1643280327853,220025.339817,-138
1643280327853,220025.3398197,-190
1643280327853,220025.3398224,-88
1643280327853,220025.3398276,14
1643280327853,220025.3398316,-102
1643280327853,220025.3398344,-254
1643280327876,220025.3398373,-159
1643280327876,220025.3398401,-49
1643280327876,220025.339843,-216
1643280327876,220025.339847,-333
1643280327876,220025.3398499,-180
1643280327876,220025.3398528,-83
1643280327876,220025.3398566,-130
1643280327876,220025.3398596,-85
1643280327876,220025.3398625,38
1643280327876,220025.3398654,33
1643280327902,220025.3398682,-21
1643280327902,220025.3398711,7
1643280327902,220025.339874,40
1643280327902,220025.3398779,33
1643280327902,220025.3398809,21
1643280327902,220025.3398859,16
1643280327902,220025.3398899,42
1643280327902,220025.3398928,49
1643280327902,220025.3398979,-47
1643280327902,220025.339901,-195
1643280327925,220025.3399047,-88
1643280327925,220025.3399076,452
1643280327925,220025.3399128,1197
1643280327925,220025.3399155,1761
1643280327925,220025.3399184,1325
1643280327925,220025.3399213,-102
1643280327925,220025.3399243,-711
1643280327925,220025.3399272,-161
1643280327925,220025.3399312,21
1643280327925,220025.3399342,-214
1643280327950,220025.3399389,-214
1643280327950,220025.3399433,-195
1643280327950,220025.3399482,-202
1643280327950,220025.9342007,-95
1643280327950,220025.934214,-92
1643280327950,220025.9342196,-166
1643280327950,220025.9342249,-166
1643280327950,220025.9342283,-154
1643280327950,220025.934233,-119
1643280327950,220025.9342366,-88
1643280327975,220025.9342414,-111
1643280327975,220025.9342451,-140
1643280327975,220025.9342497,-130
1643280327975,220025.9342527,-64
1643280327975,220025.9342575,-40
1643280327975,220025.934262,-114
1643280327975,220025.9342667,-99
1643280327975,220025.9342696,14
1643280327975,220025.9342725,42
1643280327975,220025.9342773,-9
1643280328005,220025.9342817,-4
1643280328005,220025.9342865,88
1643280328005,220025.9342895,111
1643280328005,220025.9342942,7
1643280328427,220025.9342976,-69
1643280328427,220025.9343136,-69
1643280328427,220025.9343248,-71
1643280328427,220025.9343445,-161
1643280328427,220025.9343578,-302
1643280328427,220025.934362,-345
1643280328427,220025.9343651,-299
1643280328427,220025.9343679,-278
1643280328427,220025.934372,-299
1643280328427,220025.9343782,-380
1643280328451,220025.9343812,-459
1643280328451,220025.934384,-526
1643280328451,220025.9343869,-614
1643280328451,220025.9343909,-678
1643280328451,220025.9343938,-702
1643280328451,220025.9343989,-726
1643280328451,220025.9344019,-768
1643280328451,220025.9344066,-764
1643280328451,220025.9344094,-661
1643280328451,220025.9344122,-537
1643280328476,220025.9344161,-447
1643280328476,220025.93443,-359
1643280328476,220025.9344373,-292
1643280328476,220025.9344406,-288
1643280328476,220025.9344438,-304
1643280328476,220025.9344467,-302
1643280328476,220025.9344501,-304
1643280328476,220025.934453,-326
1643280328476,220025.934457,-307
1643280328476,220025.93446,-228
1643280328500,220025.9344648,-149
1643280328500,220025.9344676,-83
1643280328500,220025.9344705,-33
1643280328500,220025.9344748,-38
1643280328500,220025.9344964,-40
1643280328500,220025.9345051,2
1643280328500,220025.9345101,54
1643280328500,220025.9345131,61
1643280328500,220025.934518,52
1643280328500,220025.9345208,90
1643280328527,220025.9345237,154
1643280328527,220025.9345269,185
1643280328527,220025.9345316,176
1643280328527,220025.9345366,159
1643280328527,220025.9345417,185
1643280328527,220025.9345458,188
1643280328527,220025.9345488,69
1643280328527,220025.9345516,49
1643280328527,220025.9345544,461
1643280328527,220025.9345586,1252
1643280328551,220025.9345615,1870
1643280328551,220025.9345663,1404
1643280328551,220026.5354195,-4
1643280328551,220026.535432,-568
1643280328551,220026.5354367,-9
1643280328551,220026.5354421,138
1643280328551,220026.5354458,-133
1643280328551,220026.5354508,-64
1643280328551,220026.5354545,47
1643280328551,220026.5354591,-11
1643280328575,220026.5354622,-9
1643280328575,220026.5354652,14
1643280328575,220026.5354701,-9
1643280328575,220026.5354734,11
1643280328575,220026.5354782,69
1643280328575,220026.5354811,78
1643280328575,220026.5354873,54
1643280328575,220026.5354903,42
1643280328575,220026.5354931,45
1643280328575,220026.535496,57
1643280328601,220026.5355047,78
1643280328601,220026.535508,97
1643280328601,220026.535513,121
1643280328601,220026.5355165,126
1643280329000,220026.5355213,121
1643280329000,220026.5355243,147
1643280329000,220026.5355273,192
1643280329000,220026.5355302,214
1643280329000,220026.5355331,211
1643280329000,220026.5355359,192
1643280329000,220026.5355388,140
1643280329000,220026.5355417,78
1643280329000,220026.5355445,40
1643280329000,220026.5355474,-14
1643280329026,220026.5355502,-80
1643280329026,220026.5355531,-88
1643280329026,220026.535556,-52
1643280329026,220026.5355588,-85
1643280329026,220026.5355617,-157
1643280329026,220026.5355645,-154
1643280329026,220026.5355676,-119
1643280329026,220026.5355707,-126
1643280329026,220026.5355759,-126
1643280329026,220026.5355789,-90
1643280329050,220026.5355839,-61
1643280329050,220026.5355869,-66
1643280329050,220026.5355921,-121
1643280329050,220026.535596,-147
1643280329050,220026.5355993,-76
1643280329050,220026.5356041,-66
1643280329050,220026.5356085,-138
1643280329050,220026.5356134,-142
1643280329050,220026.5356164,-121
1643280329050,220026.5356203,-142
1643280329075,220026.5356243,-149
1643280329075,220026.5356273,-135
1643280329075,220026.5356323,-159
1643280329075,220026.5356354,-173
1643280329075,220026.5356403,-138
1643280329075,220026.5356434,-119
1643280329075,220026.5356465,-147
1643280329075,220026.5356514,-190
1643280329075,220026.5356544,-152
1643280329075,220026.5356576,-64
1643280329099,220026.5356607,-80
1643280329099,220026.5356649,-142
1643280329099,220026.5356687,-135
1643280329099,220026.5356726,-138
1643280329099,220026.5356757,-199
1643280329099,220026.5356806,-230
1643280329099,220026.5356841,-178
1643280329099,220026.5356889,-173
1643280329099,220026.5356919,-257
1643280329099,220026.5356951,-268
1643280329125,220026.5357,-180
1643280329125,220027.0847557,-49
1643280329125,220027.084773,119
1643280329125,220027.084777,242
1643280329125,220027.0847805,209
1643280329125,220027.0847833,204
1643280329125,220027.0847861,557
1643280329125,220027.0847887,1256
1643280329125,220027.0847914,1880
1643280329125,220027.0847941,1601
1643280329150,220027.0847968,276
1643280329150,220027.0847995,-509
1643280329150,220027.0848021,-114
1643280329150,220027.0848048,92
1643280329150,220027.0848074,-202
1643280329150,220027.0848102,-238
1643280329150,220027.0848129,-121
1643280329150,220027.0848156,-123
1643280329150,220027.0848184,-97
1643280329150,220027.0848213,-76
1643280329174,220027.0848254,-135
1643280329174,220027.0848292,-133
1643280329174,220027.0848321,-69
1643280329174,220027.0848379,-49
1643280329550,220027.0848406,-54
1643280329550,220027.0848434,-52
1643280329550,220027.0848462,-59
1643280329550,220027.0848488,-35
1643280329550,220027.0848515,30
1643280329550,220027.0848542,71
1643280329550,220027.0848569,71
1643280329550,220027.0848595,88
1643280329550,220027.0848624,116
1643280329550,220027.0848653,133
1643280329574,220027.0848679,154
1643280329574,220027.0848706,183
1643280329574,220027.0848733,202
1643280329574,220027.0848759,202
1643280329574,220027.0848786,164
1643280329574,220027.0848812,97
1643280329574,220027.0848839,49
1643280329574,220027.0848866,21
1643280329574,220027.0848893,-11
1643280329574,220027.0848922,-42
1643280329599,220027.084895,-59
1643280329599,220027.0848979,-61
1643280329599,220027.0849028,-71
1643280329599,220027.0849055,-69
1643280329599,220027.0849084,-47
1643280329599,220027.0849112,-35
1643280329599,220027.084914,-35
1643280329599,220027.0849168,-26
1643280329599,220027.0849197,-23
1643280329599,220027.0849235,-23
1643280329626,220027.0849263,-26
1643280329626,220027.08493,-30
1643280329626,220027.0849328,-26
1643280329626,220027.0849366,-26
1643280329626,220027.0849395,-38
1643280329626,220027.0849432,-47
1643280329626,220027.0849461,-40
1643280329626,220027.0849497,-26
1643280329626,220027.0849527,-26
1643280329626,220027.0849571,-38
1643280329651,220027.0849598,-35
1643280329651,220027.0849627,-21
1643280329651,220027.0849673,-9
1643280329651,220027.0849709,-7
1643280329651,220027.0849755,0
1643280329651,220027.0849784,23
1643280329651,220027.0849813,33
1643280329651,220027.084986,16
1643280329651,220027.0849887,11
1643280329651,220027.0849916,28
1643280329675,220027.6383713,40
1643280329675,220027.6383843,40
1643280329675,220027.638388,40
1643280329675,220027.6383932,42
1643280329675,220027.6383965,38
1643280329675,220027.6384014,35
1643280329675,220027.6384051,4
1643280329675,220027.6384083,-97
1643280329675,220027.6384135,-149
1643280329675,220027.6384165,149
1643280329700,220027.6384196,909
1643280329700,220027.6384245,1761
1643280329700,220027.6384276,1742
1643280329700,220027.6384325,399
1643280329700,220027.6384371,-649
1643280329700,220027.6384418,-280
1643280329700,220027.6384465,78
1643280329700,220027.6384516,-183
1643280329700,220027.6384554,-202
1643280329700,220027.6384603,-42
1643280329726,220027.6384641,-83
1643280329726,220027.6384687,-109
1643280329726,220027.6384726,-49
1643280329726,220027.6384774,-45
1643280330175,220027.6384828,-59
1643280330175,220027.6384862,-40
1643280330175,220027.6384892,-26
1643280330175,220027.6384921,-21
1643280330175,220027.638495,-7
1643280330175,220027.6384979,0
1643280330175,220027.6385007,4
1643280330175,220027.6385035,14
1643280330175,220027.6385063,28
1643280330175,220027.638509,40
1643280330199,220027.6385119,40
1643280330199,220027.6385146,38
1643280330199,220027.6385175,52
1643280330199,220027.6385203,71
1643280330199,220027.6385231,83
1643280330199,220027.6385258,97
1643280330199,220027.6385285,102
1643280330199,220027.6385313,80
1643280330199,220027.638534,33
1643280330199,220027.6385369,-16
1643280330225,220027.6385397,-54
1643280330225,220027.6385425,-85
1643280330225,220027.6385453,-104
1643280330225,220027.6385484,-119
1643280330225,220027.6385515,-135
1643280330225,220027.6385545,-128
1643280330225,220027.6385585,-114
1643280330225,220027.6385616,-111
1643280330225,220027.6385666,-99
1643280330225,220027.6385695,-69
1643280330250,220027.6385726,-45
1643280330250,220027.6385774,-33
1643280330250,220027.6385805,-23
1643280330250,220027.6385845,-9
1643280330250,220027.6385876,4
1643280330250,220027.6385923,11
1643280330250,220027.6385955,11
1643280330250,220027.6386007,9
1643280330250,220027.6386055,11
1643280330250,220027.6386102,0
1643280330275,220027.6386148,-21
1643280330275,220027.6386195,-21
1643280330275,220027.638624,-2
1643280330275,220027.6386287,2
1643280330275,220027.6386326,-11
1643280330275,220027.6386375,-23
1643280330275,220027.6386406,-28
1643280330275,220027.6386454,-35
1643280330275,220027.6386485,-57
1643280330275,220028.2844256,-76
1643280330299,220028.2844381,-59
1643280330299,220028.2844418,-26
1643280330299,220028.284447,-2
1643280330299,220028.2844513,9
1643280330299,220028.2844544,26
1643280330299,220028.2844573,40
1643280330299,220028.28446,61
1643280330299,220028.2844629,78
1643280330299,220028.2844657,49
1643280330299,220028.2844686,-59
1643280330325,220028.2844715,-76
1643280330325,220028.2844743,311
1643280330325,220028.2844783,1137
1643280330325,220028.2844838,1944
1643280330325,220028.2844886,1701
1643280330325,220028.2844916,192
1643280330325,220028.2844966,-742
1643280330325,220028.2844996,-290
1643280330325,220028.2845045,-66
1643280330325,220028.2845075,-407
1643280330352,220028.2845124,-407
1643280330352,220028.2845151,-290
1643280330352,220028.2845181,-392
1643280330352,220028.284522,-433
1643280330652,220028.2845249,-388
1643280330652,220028.2845278,-407
1643280330652,220028.2845305,-421
1643280330652,220028.2845331,-390
1643280330652,220028.2845358,-373
1643280330652,220028.2845384,-361
1643280330652,220028.2845411,-330
1643280330652,220028.2845438,-292
1643280330652,220028.2845466,-238
1643280330652,220028.2845493,-176
1643280330675,220028.2845525,-107
1643280330675,220028.2845552,-35
1643280330675,220028.2845579,26
1643280330675,220028.2845607,95
1643280330675,220028.2845633,147
1643280330675,220028.284566,169
1643280330675,220028.284569,202
1643280330675,220028.284574,238
1643280330675,220028.2845769,238
1643280330675,220028.2845817,214
1643280330700,220028.2845847,188
1643280330700,220028.2845896,149
1643280330700,220028.2845929,102
1643280330700,220028.2845975,64
1643280330700,220028.2846004,30
1643280330700,220028.2846034,9
1643280330700,220028.2846081,16
1643280330700,220028.2846128,19
1643280330700,220028.2846175,0
1643280330700,220028.2846221,-7
1643280330725,220028.2846268,0
1643280330725,220028.2846298,9
1643280330725,220028.2846344,11
1643280330725,220028.2846373,14
1643280330725,220028.2846418,11
1643280330725,220028.2846446,14
1643280330725,220028.2846476,19
1643280330725,220028.2846523,0
1643280330725,220028.2846552,-30
1643280330725,220028.2846591,-33
1643280330751,220028.2846621,-21
1643280330751,220028.2846674,-23
1643280330751,220028.2846704,-33
1643280330751,220028.284675,-61
1643280330751,220028.2846794,-97
1643280330751,220028.284684,-99
1643280330751,220028.2846885,-90
1643280330751,220028.2846929,-85
1643280330751,220028.7375106,-78
1643280330751,220028.7375232,-80
1643280330777,220028.737528,-90
1643280330777,220028.7375332,-69
1643280330777,220028.7375364,-35
1643280330777,220028.737541,-28
1643280330777,220028.7375441,-30
1643280330777,220028.7375488,-14
1643280330777,220028.7375516,-4
1643280330777,220028.7375548,2
1643280330777,220028.7375595,21
1643280330777,220028.7375625,-4
1643280330803,220028.7375671,-104
1643280330803,220028.7375716,-116
1643280330803,220028.7375763,245
1643280330803,220028.7375801,1025
1643280330803,220028.7375846,1797
1643280330803,220028.7375878,1559
1643280330803,220028.7375924,138
1643280330803,220028.7375955,-671
1643280330803,220028.7376001,-173
1643280330803,220028.7376031,52
1643280330826,220028.7376076,-242
1643280330826,220028.7376122,-190
1643280330826,220028.7376167,-38
1643280330826,220028.7376195,-102
1643280331276,220028.7376224,-123
1643280331276,220028.7376253,-83
1643280331276,220028.7376281,-111
1643280331276,220028.7376308,-130
1643280331276,220028.7376335,-111
1643280331276,220028.7376362,-133
1643280331276,220028.7376389,-164
1643280331276,220028.7376416,-138
1643280331276,220028.7376444,-88
1643280331276,220028.7376471,-42
1643280331300,220028.7376499,9
1643280331300,220028.7376527,47
1643280331300,220028.7376554,78
1643280331300,220028.7376581,149
1643280331300,220028.7376608,223
1643280331300,220028.7376635,240
1643280331300,220028.7376663,254
1643280331300,220028.737669,302
1643280331300,220028.7376717,333
1643280331300,220028.7376746,340
1643280331326,220028.7376776,342
1643280331326,220028.7376822,307
1643280331326,220028.7376868,254
1643280331326,220028.7376917,238
1643280331326,220028.7376948,226
1643280331326,220028.7376993,188
1643280331326,220028.7377038,159
1643280331326,220028.7377084,147
1643280331326,220028.7377112,126
1643280331326,220028.7377142,109
1643280331352,220028.737719,107
1643280331352,220028.737722,88
1643280331352,220028.737727,64
1643280331352,220028.7377309,64
1643280331352,220028.7377339,54
1643280331352,220028.7377387,19
1643280331352,220028.7377417,0
1643280331352,220028.7377463,23
1643280331352,220028.7377494,42
1643280331352,220028.737754,33
1643280331376,220028.7377571,42
1643280331376,220028.7377602,64
1643280331376,220028.7377647,33
1643280331376,220028.7377677,0
1643280331376,220028.7377724,35
1643280331376,220028.7377754,80
1643280331376,220028.7377799,83
1643280331376,220029.3848091,85
1643280331376,220029.3848216,92
1643280331376,220029.3848252,85
1643280331401,220029.3848301,69
1643280331401,220029.3848346,59
1643280331401,220029.3848393,78
1643280331401,220029.3848423,92
1643280331401,220029.3848452,83
1643280331401,220029.384849,76
1643280331401,220029.3848519,88
1643280331401,220029.3848566,85
1643280331401,220029.3848609,85
1643280331401,220029.3848656,109
1643280331425,220029.3848693,90
1643280331425,220029.3848741,-7
1643280331425,220029.384877,-16
1643280331425,220029.38488,323
1643280331425,220029.3848846,1042
1643280331425,220029.3848889,1747
1643280331425,220029.3848936,1580
1643280331425,220029.3848964,326
1643280331425,220029.3848993,-471
1643280331425,220029.3849041,-76
1643280331451,220029.3849069,159
1643280331451,220029.3849098,-88
1643280331451,220029.3849145,-47
1643280331451,220029.3849183,92
1643280331751,220029.3849221,23
1643280331751,220029.3849249,0
1643280331751,220029.3849276,64
1643280331751,220029.3849303,57
1643280331751,220029.3849329,38
1643280331751,220029.3849355,66
1643280331751,220029.3849381,85
1643280331751,220029.3849408,78
1643280331751,220029.3849434,57
1643280331751,220029.3849461,59
1643280331775,220029.3849487,102
1643280331775,220029.3849513,135
1643280331775,220029.384954,123
1643280331775,220029.3849566,114
1643280331775,220029.3849592,130
1643280331775,220029.3849618,159
1643280331775,220029.3849645,192
1643280331775,220029.3849698,204
1643280331775,220029.384975,204
1643280331775,220029.3849779,211
1643280331800,220029.3849819,202
1643280331800,220029.3849848,173
1643280331800,220029.3849885,135
1643280331800,220029.3849934,85
1643280331800,220029.3849983,23
1643280331800,220029.385002,-40
1643280331800,220029.3850061,-83
1643280331800,220029.3850089,-97
1643280331800,220029.3850176,-107
1643280331800,220029.385021,-114
1643280331825,220029.3850485,-133
1643280331825,220029.3850534,-138
1643280331825,220029.3850572,-95
1643280331825,220029.3850611,-47
1643280331825,220029.3850638,-19
1643280331825,220029.3850666,-16
1643280331825,220029.3850693,-30
1643280331825,220029.3850719,-19
1643280331825,220029.3850747,9
1643280331825,220029.3850773,26
1643280331851,220029.38508,28
1643280331851,220029.3850827,14
1643280331851,220029.3850854,14
1643280331851,220029.3850882,54
1643280331851,220029.3850908,119
1643280331851,220029.3850938,145
1643280331851,220029.8396652,90
1643280331851,220029.8396777,7
1643280331851,220029.8396831,4
1643280331851,220029.8396883,35
1643280331876,220029.8396913,35
1643280331876,220029.8396944,28
1643280331876,220029.8396991,26
1643280331876,220029.8397039,38
1643280331876,220029.8397087,57
1643280331876,220029.8397117,40
1643280331876,220029.8397156,19
1643280331876,220029.8397187,11
1643280331876,220029.8397236,-11
1643280331876,220029.8397265,-9
1643280331900,220029.8397296,45
1643280331900,220029.8397343,85
1643280331900,220029.8397387,61
1643280331900,220029.8397439,2
1643280331900,220029.8397477,42
1643280331900,220029.8397526,392
1643280331900,220029.8397557,1111
1643280331900,220029.8397605,1737
1643280331900,220029.8397635,1340
1643280331900,220029.8397674,121
1643280331925,220029.8397705,-288
1643280331925,220029.8397752,195
1643280331925,220029.8397782,257
1643280331925,220029.8397813,23
1643280332300,220029.8397861,85
1643280332300,220029.8397899,140
1643280332300,220029.8397928,52
1643280332300,220029.8397956,28
1643280332300,220029.8397985,54
1643280332300,220029.8398013,49
1643280332300,220029.839804,35
1643280332300,220029.8398069,30
1643280332300,220029.8398096,26
1643280332300,220029.8398124,-7
1643280332324,220029.8398152,-47
1643280332324,220029.839818,-57
1643280332324,220029.8398209,-88
1643280332324,220029.8398238,-104
1643280332324,220029.8398266,-78
1643280332324,220029.8398294,-90
1643280332324,220029.8398322,-130
1643280332324,220029.8398358,-73
1643280332324,220029.8398389,21
1643280332324,220029.8398438,35
1643280332350,220029.8398484,33
1643280332350,220029.8398532,40
1643280332350,220029.8398577,-4
1643280332350,220029.8398625,-59
1643280332350,220029.8398656,-26
1643280332350,220029.8398704,66
1643280332350,220029.8398747,135
1643280332350,220029.8398793,178
1643280332350,220029.8398824,197
1643280332350,220029.8398871,190
1643280332377,220029.8398903,204
1643280332377,220029.8398953,238
1643280332377,220029.8398984,254
1643280332377,220029.8399032,254
1643280332377,220029.8399061,252
1643280332377,220029.8399092,245
1643280332377,220029.839914,247
1643280332377,220029.8399185,278
1643280332377,220029.8399235,299
1643280332377,220029.8399337,280
1643280332401,220029.8399369,249
1643280332401,220029.839942,228
1643280332401,220029.8399452,230
1643280332401,220029.8399502,254
1643280332401,220029.8399546,261
1643280332401,220030.3905215,254
1643280332401,220030.3905347,266
1643280332401,220030.3905395,261
1643280332401,220030.3905448,235
1643280332401,220030.3905479,230
1643280332425,220030.390553,240
1643280332425,220030.3905562,249
1643280332425,220030.3905602,254
1643280332425,220030.3905634,238
1643280332425,220030.3905683,209
1643280332425,220030.3905728,188
1643280332425,220030.3905776,176
1643280332425,220030.3905805,161
1643280332425,220030.3905834,159
1643280332425,220030.3905882,164
1643280332450,220030.3905914,164
1643280332450,220030.3905955,173
1643280332450,220030.3905986,190
1643280332450,220030.3906037,173
1643280332450,220030.3906081,114
1643280332450,220030.3906129,42
1643280332450,220030.3906173,133
1643280332450,220030.3906224,578
1643280332450,220030.3906268,1302
1643280332450,220030.3906316,1775
1643280332475,220030.3906345,1111
1643280332475,220030.3906377,-166
1643280332475,220030.3906423,-342
1643280332475,220030.3906468,192
1643280332850,220030.3906516,126
1643280332850,220030.3906546,-73
1643280332850,220030.3906575,57
1643280332850,220030.3906604,95
1643280332850,220030.3906632,23
1643280332850,220030.390666,52
1643280332850,220030.3906688,73
1643280332850,220030.3906715,38
1643280332850,220030.3906743,38
1643280332850,220030.3906771,61
1643280332876,220030.3906799,64
1643280332876,220030.3906826,76
1643280332876,220030.3906854,92
1643280332876,220030.3906882,102
1643280332876,220030.3906909,114
1643280332876,220030.3906936,130
1643280332876,220030.3906964,157
1643280332876,220030.3906993,192
1643280332876,220030.390703,207
1643280332876,220030.390708,218
1643280332901,220030.3907121,247
1643280332901,220030.3907168,264
1643280332901,220030.3907197,261
1643280332901,220030.3907228,249
1643280332901,220030.3907275,233
1643280332901,220030.3907306,202
1643280332901,220030.3907346,161
1643280332901,220030.3907378,119
1643280332901,220030.3907426,78
1643280332901,220030.3907473,54
1643280332925,220030.390752,40
1643280332925,220030.3907557,35
1643280332925,220030.3907606,47
1643280332925,220030.3907649,40
1643280332925,220030.39077,16
1643280332925,220030.3907746,23
1643280332925,220030.3907794,45
1643280332925,220030.3907826,47
1643280332925,220030.3907857,47
1643280332925,220030.3907906,45
1643280332949,220030.3907949,33
1643280332949,220030.3907997,33
1643280332949,220030.3908026,40
1643280332949,220030.3908075,38
1643280332949,220030.9403973,21
1643280332949,220030.9404103,16
1643280332949,220030.9404157,21
1643280332949,220030.9404211,14
1643280332949,220030.9404244,-2
1643280332949,220030.9404294,-4
1643280332976,220030.940433,-2
1643280332976,220030.9404377,-9
1643280332976,220030.9404407,-16
1643280332976,220030.9404457,-30
1643280332976,220030.9404505,-54
1643280332976,220030.9404553,-54
1643280332976,220030.9404584,-52
1643280332976,220030.9404632,-54
1643280332976,220030.9404662,-42
1643280332976,220030.9404693,-33
1643280333001,220030.9404741,-38
1643280333001,220030.9404788,-35
1643280333001,220030.9404835,-33
1643280333001,220030.9404885,-42
1643280333001,220030.9404932,-95
1643280333001,220030.9404962,-135
1643280333001,220030.9405002,69
1643280333001,220030.9405034,687
1643280333001,220030.9405085,1492
1643280333001,220030.9405116,1635
1643280333024,220030.9405164,473
1643280333024,220030.9405194,-661
1643280333024,220030.9405243,-385
1643280333024,220030.9405288,90
1643280333401,220030.9405335,-111
1643280333401,220030.9405375,-176
1643280333401,220030.9405403,-19
