unixTime,lslTime,ECG
1643563191249,12764.7852023,123
1643563191249,12764.7852052,9
1643563191249,12764.7852081,-75
1643563191249,12764.785211,-142
1643563191249,12764.7852138,-189
1643563191249,12764.7852166,-215
1643563191249,12764.7852195,-232
1643563191249,12764.7852223,-236
1643563191249,12764.7852251,-222
1643563191249,12764.785228,-210
1643563191270,12764.7852309,-198
1643563191270,12764.7852337,-187
1643563191270,12764.7852365,-187
1643563191270,12764.7852393,-189
1643563191270,12764.7852573,-172
1643563191270,12764.7852616,-163
1643563191270,12764.7852648,-161
1643563191270,12764.7852687,-146
1643563191270,12764.7852715,-132
1643563191270,12764.7852746,-130
1643563191291,12764.7852786,-127
1643563191291,12764.7852817,-118
1643563191291,12764.7852867,-113
1643563191291,12764.7852895,-108
1643563191291,12764.7852926,-104
1643563191291,12764.7852978,-104
1643563191291,12764.7853012,-106
1643563191291,12764.785306,-104
1643563191291,12764.7853094,-101
1643563191291,12764.7853126,-99
1643563191313,12764.7853166,-97
1643563191313,12764.7853196,-97
1643563191313,12764.7853295,-92
1643563191313,12764.7853484,-85
1643563191313,12764.7853548,-78
1643563191313,12764.7853584,-78
1643563191313,12764.7853624,-75
1643563191313,12764.7853653,-68
1643563191313,12764.7853684,-73
1643563191313,12764.7853714,-68
1643563191336,12764.7853742,-44
1643563191336,12764.7853771,-30
1643563191336,12764.7853803,-11
1643563191336,12764.7853844,26
1643563191336,12764.7853874,28
1643563191336,12764.7853904,2
1643563191336,12764.7853963,-16
1643563191336,12764.7853994,-30
1643563191336,12764.7854025,-40
1643563191336,12764.7854053,-30
1643563191358,12764.7854089,-16
1643563191358,12764.785412,-18
1643563191358,12764.7854151,-16
1643563191358,12764.7854181,-4
1643563191358,12764.7854212,26
1643563191358,12764.7854261,163
1643563191358,12764.7854293,499
1643563191358,12764.785434,819
1643563191358,12764.7854371,637
1643563191358,12764.7854421,-108
1643563191379,12764.785445,-862
1643563191379,12764.7854479,-942
1643563191379,12764.7854527,-364
1643563191379,12765.290841,23
1643563191379,12765.2908537,2
1643563191379,12765.2908578,23
1643563191379,12765.2908629,85
1643563191379,12765.2908661,68
1643563191379,12765.2908709,71
1643563191379,12765.2908758,101
1643563191402,12765.2908798,101
1643563191402,12765.2908829,89
1643563191402,12765.2908877,101
1643563191402,12765.2908924,125
1643563191913,12765.2908962,142
1643563191913,12765.2908992,161
1643563191913,12765.290902,184
1643563191913,12765.2909048,191
1643563191913,12765.2909076,196
1643563191913,12765.2909105,224
1643563191913,12765.2909133,269
1643563191913,12765.2909161,307
1643563191913,12765.2909188,345
1643563191913,12765.2909421,374
1643563191936,12765.2909505,388
1643563191936,12765.290957,400
1643563191936,12765.2909602,409
1643563191936,12765.2909633,402
1643563191936,12765.2909663,376
1643563191936,12765.2909692,319
1643563191936,12765.2909722,229
1643563191936,12765.2909758,120
1643563191936,12765.2909788,18
1643563191936,12765.2909818,-68
1643563191959,12765.290986,-142
1643563191959,12765.290989,-189
1643563191959,12765.2909949,-217
1643563191959,12765.2909978,-234
1643563191959,12765.2910006,-234
1643563191959,12765.2910037,-224
1643563191959,12765.2910066,-208
1643563191959,12765.2910096,-196
1643563191959,12765.2910126,-194
1643563191959,12765.2910266,-184
1643563191982,12765.2910332,-163
1643563191982,12765.2910374,-142
1643563191982,12765.2910425,-134
1643563191982,12765.2910454,-127
1643563191982,12765.2910485,-120
1643563191982,12765.2910524,-113
1643563191982,12765.2910555,-111
1643563191982,12765.2910604,-106
1643563191982,12765.2910652,-99
1643563191982,12765.2910785,-99
1643563192003,12765.2910934,-99
1643563192003,12765.2910994,-94
1643563192003,12765.2911027,-97
1643563192003,12765.2911058,-94
1643563192003,12765.2911088,-89
1643563192003,12765.2911118,-87
1643563192003,12765.2911148,-82
1643563192003,12765.2911178,-78
1643563192003,12765.2911208,-78
1643563192003,12765.291126,-80
1643563192025,12765.291129,-75
1643563192025,12765.291132,-68
1643563192025,12765.2911362,-66
1643563192025,12765.2911393,-66
1643563192025,12765.291144,-61
1643563192025,12765.2911469,-56
1643563192025,12765.29115,-54
1643563192025,12765.2911547,-56
1643563192025,12765.2911576,-63
1643563192025,12765.2911607,-66
1643563192048,12765.2911656,-52
1643563192048,12765.2911685,-28
1643563192048,12765.9361782,-16
1643563192048,12765.9361908,-7
1643563192048,12765.9361944,18
1643563192048,12765.9361995,44
1643563192048,12765.9362037,26
1643563192048,12765.9362086,-18
1643563192048,12765.9362117,-37
1643563192048,12765.9362167,-37
1643563192069,12765.9362205,-40
1643563192069,12765.9362253,-37
1643563192069,12765.936229,-23
1643563192069,12765.9362321,-16
1643563192357,12765.9362371,-28
1643563192357,12765.9362406,-52
1643563192357,12765.9362436,0
1643563192357,12765.9362496,258
1643563192357,12765.9362526,686
1643563192357,12765.9362555,857
1643563192357,12765.9362584,319
1643563192357,12765.9362612,-644
1643563192357,12765.936264,-1101
1643563192357,12765.9362668,-677
1643563192380,12765.9362697,-132
1643563192380,12765.9362726,-23
1643563192380,12765.9362754,-26
1643563192380,12765.9362783,47
1643563192380,12765.9362811,54
1643563192380,12765.9362839,37
1643563192380,12765.9362869,66
1643563192380,12765.936292,80
1643563192380,12765.9362966,80
1643563192380,12765.9363015,92
1643563192402,12765.9363058,106
1643563192402,12765.9363106,116
1643563192402,12765.9363137,137
1643563192402,12765.9363184,158
1643563192402,12765.9363213,170
1643563192402,12765.9363262,187
1643563192402,12765.936329,215
1643563192402,12765.9363321,248
1643563192402,12765.9363369,279
1643563192402,12765.9363402,312
1643563192424,12765.9363453,336
1643563192424,12765.9363484,348
1643563192424,12765.9363531,362
1643563192424,12765.9363562,371
1643563192424,12765.9363608,364
1643563192424,12765.9363638,355
1643563192424,12765.9363686,341
1643563192424,12765.9363717,293
1643563192424,12765.9363765,217
1643563192424,12765.9363795,132
1643563192446,12765.9363841,44
1643563192446,12765.9363884,-30
1643563192446,12765.9363932,-89
1643563192446,12765.9363978,-130
1643563192446,12765.9364024,-156
1643563192446,12765.9364066,-168
1643563192446,12765.9364115,-168
1643563192446,12765.9364151,-158
1643563192446,12765.93642,-146
1643563192446,12765.936423,-144
1643563192469,12765.9364278,-142
1643563192469,12765.9364309,-130
1643563192469,12765.9364356,-113
1643563192469,12765.9364398,-111
1643563192469,12765.9364445,-106
1643563192469,12765.9364475,-99
1643563192469,12765.9364523,-94
1643563192469,12765.9364563,-92
1643563192469,12765.9364611,-89
1643563192469,12765.9364654,-92
1643563192490,12765.9364701,-89
1643563192490,12766.3909932,-85
1643563192490,12766.3910035,-85
1643563192490,12766.3910066,-82
1643563192490,12766.3910095,-80
1643563192490,12766.3910124,-78
1643563192490,12766.3910152,-80
1643563192490,12766.3910181,-82
1643563192490,12766.3910211,-80
1643563192490,12766.3910239,-75
1643563192513,12766.3910268,-71
1643563192513,12766.3910296,-73
1643563192513,12766.3910326,-89
1643563192513,12766.3910356,-99
1643563192913,12766.3910391,-89
1643563192913,12766.3910419,-78
1643563192913,12766.3910445,-78
1643563192913,12766.3910472,-73
1643563192913,12766.3910499,-73
1643563192913,12766.3910526,-87
1643563192913,12766.3910554,-94
1643563192913,12766.391058,-78
1643563192913,12766.3910607,-66
1643563192913,12766.3910633,-63
1643563192935,12766.3910661,-71
1643563192935,12766.3910687,-66
1643563192935,12766.3910714,-44
1643563192935,12766.3910741,-28
1643563192935,12766.3910768,-11
1643563192935,12766.3910796,23
1643563192935,12766.3910823,42
1643563192935,12766.391085,14
1643563192935,12766.3910877,-26
1643563192935,12766.3910903,-37
1643563192958,12766.391093,-30
1643563192958,12766.3910957,-33
1643563192958,12766.3910983,-33
1643563192958,12766.391101,-21
1643563192958,12766.3911037,-21
1643563192958,12766.3911065,-18
1643563192958,12766.3911095,4
1643563192958,12766.3911124,97
1643563192958,12766.3911153,371
1643563192958,12766.3911183,764
1643563192982,12766.3911209,793
1643563192982,12766.3911237,97
1643563192982,12766.3911264,-824
1643563192982,12766.3911293,-1075
1643563192982,12766.3911323,-537
1643563192982,12766.3911386,-49
1643563192982,12766.3911415,14
1643563192982,12766.3911464,33
1643563192982,12766.3911494,108
1643563192982,12766.3911542,104
1643563193003,12766.3911579,92
1643563193003,12766.3911626,113
1643563193003,12766.3911654,113
1643563193003,12766.3911683,111
1643563193003,12766.3911713,130
1643563193003,12766.391174,149
1643563193003,12766.3911784,161
1643563193003,12766.3911834,177
1643563193003,12766.3911864,198
1643563193003,12766.3911919,222
1643563193025,12766.391195,246
1643563193025,12766.3911996,279
1643563193025,12766.3912025,317
1643563193025,12766.3912055,348
1643563193025,12766.3912085,374
1643563193025,12766.3912128,407
1643563193025,12766.3912155,428
1643563193025,12766.3912183,433
1643563193025,12766.3912212,435
1643563193025,12766.391226,435
1643563193046,12766.9408809,416
1643563193046,12766.9408953,378
1643563193046,12766.9408991,310
1643563193046,12766.9409043,206
1643563193046,12766.9409076,101
1643563193046,12766.9409126,9
1643563193046,12766.9409163,-73
1643563193046,12766.9409212,-130
1643563193046,12766.940926,-165
1643563193046,12766.9409309,-198
1643563193068,12766.940934,-236
1643563193068,12766.9409388,-246
1643563193068,12766.9409418,-227
1643563193068,12766.9409468,-210
1643563193470,12766.9409499,-194
1643563193470,12766.9409529,-172
1643563193470,12766.9409558,-163
1643563193470,12766.9409586,-161
1643563193470,12766.9409614,-146
1643563193470,12766.9409642,-125
1643563193470,12766.940967,-113
1643563193470,12766.9409698,-113
1643563193470,12766.9409726,-116
1643563193470,12766.9409754,-111
1643563193492,12766.9409782,-101
1643563193492,12766.940981,-94
1643563193492,12766.9409838,-94
1643563193492,12766.9409866,-97
1643563193492,12766.9409895,-89
1643563193492,12766.9409923,-87
1643563193492,12766.9409951,-92
1643563193492,12766.9409979,-87
1643563193492,12766.9410007,-78
1643563193492,12766.9410035,-82
1643563193515,12766.9410063,-87
1643563193515,12766.9410091,-78
1643563193515,12766.9410124,-68
1643563193515,12766.9410155,-71
1643563193515,12766.9410192,-71
1643563193515,12766.9410242,-61
1643563193515,12766.9410279,-54
1643563193515,12766.9410319,-47
1643563193515,12766.941035,-44
1643563193515,12766.9410403,-42
1643563193536,12766.941044,-37
1643563193536,12766.9410472,-35
1643563193536,12766.9410513,-42
1643563193536,12766.9410544,-37
1643563193536,12766.9410583,-28
1643563193536,12766.9410614,-16
1643563193536,12766.9410663,11
1643563193536,12766.9410693,44
1643563193536,12766.9410724,37
1643563193536,12766.9410776,0
1643563193558,12766.941081,-26
1643563193558,12766.941084,-30
1643563193558,12766.9410888,-30
1643563193558,12766.9410935,-26
1643563193558,12766.9410981,-18
1643563193558,12766.941101,-16
1643563193558,12766.9411042,-14
1643563193558,12766.9411088,7
1643563193558,12766.9411133,82
1643563193558,12766.941118,300
1643563193581,12766.9411209,674
1643563193581,12766.9411241,795
1643563193581,12766.9411289,194
1643563193581,12766.9411333,-769
1643563193581,12766.9411381,-1136
1643563193581,12766.9411411,-651
1643563193581,12766.941146,-97
1643563193581,12766.9411497,16
1643563193581,12766.9411528,28
1643563193581,12767.4918671,111
1643563193603,12767.4919619,120
1643563193603,12767.4919685,101
1643563193603,12767.4919718,123
1643563193603,12767.4919746,137
1643563193603,12767.4919774,137
1643563193603,12767.4919802,151
1643563193603,12767.4919829,158
1643563193603,12767.4919857,146
1643563193603,12767.4919884,137
1643563193603,12767.4919912,158
1643563193625,12767.4919944,189
1643563193625,12767.4919971,215
1643563193625,12767.4919998,246
1643563193625,12767.4920025,279
1643563194004,12767.4920052,314
1643563194004,12767.4920079,348
1643563194004,12767.4920106,374
1643563194004,12767.4920312,397
1643563194004,12767.4920375,414
1643563194004,12767.4920407,419
1643563194004,12767.4920437,409
1643563194004,12767.4920465,383
1643563194004,12767.4920493,336
1643563194004,12767.4920521,262
1643563194025,12767.4920616,168
1643563194025,12767.4920796,66
1643563194025,12767.4920846,-23
1643563194025,12767.492088,-106
1643563194025,12767.492091,-163
1643563194025,12767.4920939,-189
1643563194025,12767.4920967,-198
1643563194025,12767.4920995,-206
1643563194025,12767.4921025,-201
1643563194025,12767.4921054,-189
1643563194049,12767.4921082,-182
1643563194049,12767.492111,-170
1643563194049,12767.4921138,-151
1643563194049,12767.4921166,-132
1643563194049,12767.4921194,-125
1643563194049,12767.4921222,-125
1643563194049,12767.492125,-123
1643563194049,12767.4921278,-111
1643563194049,12767.4921307,-99
1643563194049,12767.4921336,-97
1643563194070,12767.4921364,-97
1643563194070,12767.4921392,-94
1643563194070,12767.4921419,-87
1643563194070,12767.4921447,-78
1643563194070,12767.4921475,-68
1643563194070,12767.4921503,-56
1643563194070,12767.492153,-52
1643563194070,12767.4921558,-78
1643563194070,12767.4921586,-99
1643563194070,12767.4921613,-85
1643563194093,12767.4921644,-73
1643563194093,12767.4921672,-75
1643563194093,12767.4921699,-73
1643563194093,12767.4921727,-66
1643563194093,12767.4921754,-63
1643563194093,12767.4921782,-61
1643563194093,12767.4921809,-49
1643563194093,12767.4921837,-47
1643563194093,12767.4921864,-47
1643563194093,12767.4921892,-47
1643563194114,12767.492192,-44
1643563194114,12767.4921948,-37
1643563194114,12767.4921976,-33
1643563194114,12767.4922005,-30
1643563194114,12767.4922033,-30
1643563194114,12767.4922061,-44
1643563194114,12767.4922089,-42
1643563194114,12767.4922118,-16
1643563194114,12768.0410541,-4
1643563194114,12768.0410655,4
1643563194136,12768.0410838,44
1643563194136,12768.0413965,66
1643563194136,12768.041561,40
1643563194136,12768.0415892,2
1643563194136,12768.0415956,-28
1643563194136,12768.0416242,-59
1643563194136,12768.0416379,-78
1643563194136,12768.0416726,-66
1643563194136,12768.0416815,-54
1643563194136,12768.041694,-52
1643563194158,12768.0417115,-40
1643563194158,12768.0417233,-16
1643563194158,12768.0417362,82
1643563194158,12768.0417405,388
1643563194714,12768.0417437,793
1643563194714,12768.0417467,786
1643563194714,12768.0417497,71
1643563194714,12768.0417526,-809
1643563194714,12768.0417555,-996
1643563194714,12768.0417584,-454
1643563194714,12768.0417613,-28
1643563194714,12768.0417642,-11
1643563194714,12768.041767,7
1643563194714,12768.0417699,78
1643563194736,12768.0417727,61
1643563194736,12768.0417756,44
1643563194736,12768.0417784,75
1643563194736,12768.0417812,94
1643563194736,12768.0417841,94
1643563194736,12768.041787,104
1643563194736,12768.0418228,116
1643563194736,12768.0418268,116
1643563194736,12768.0418298,123
1643563194736,12768.0418327,151
1643563194758,12768.0418355,177
1643563194758,12768.0418384,201
1643563194758,12768.0418413,232
1643563194758,12768.0418441,267
1643563194758,12768.041847,296
1643563194758,12768.0418498,324
1643563194758,12768.0418528,355
1643563194758,12768.0418557,374
1643563194758,12768.0418585,381
1643563194758,12768.0418614,383
1643563194780,12768.0418642,381
1643563194780,12768.041867,359
1643563194780,12768.0418699,319
1643563194780,12768.0418727,260
1643563194780,12768.0418756,179
1643563194780,12768.0418785,85
1643563194780,12768.0418817,-2
1643563194780,12768.0418856,-66
1643563194780,12768.0418887,-113
1643563194780,12768.0418915,-153
1643563194802,12768.0418944,-179
1643563194802,12768.0418972,-184
1643563194802,12768.0419001,-187
1643563194802,12768.0419029,-177
1643563194802,12768.0419081,-161
1643563194802,12768.0419111,-149
1643563194802,12768.0419139,-139
1643563194802,12768.0419168,-127
1643563194802,12768.0419196,-118
1643563194802,12768.0419228,-113
1643563194825,12768.0419256,-104
1643563194825,12768.0419285,-94
1643563194825,12768.0419314,-92
1643563194825,12768.0419343,-87
1643563194825,12768.0419372,-87
1643563194825,12768.0419422,-85
1643563194825,12768.0419453,-82
1643563194825,12768.7351158,-80
1643563194825,12768.735129,-75
1643563194825,12768.7351326,-78
1643563194847,12768.7351359,-78
1643563194847,12768.7351403,-75
1643563194847,12768.7351433,-92
1643563194847,12768.7351464,-125
1643563194847,12768.7351493,-125
1643563194847,12768.7351522,-106
1643563194847,12768.7351551,-108
1643563194847,12768.735158,-108
1643563194847,12768.7351609,-97
1643563194847,12768.7351638,-94
1643563194869,12768.7351668,-92
1643563194869,12768.7351697,-82
1643563194869,12768.7351726,-75
1643563194869,12768.7351755,-73
1643563195158,12768.7351784,-66
1643563195158,12768.7351813,-63
1643563195158,12768.7351842,-61
1643563195158,12768.7351871,-54
1643563195158,12768.73519,-49
1643563195158,12768.7351929,-47
1643563195158,12768.7351958,-44
1643563195158,12768.7351987,-28
1643563195158,12768.7352016,-7
1643563195158,12768.7352045,2
1643563195181,12768.7352075,14
1643563195181,12768.7352104,42
1643563195181,12768.7352133,42
1643563195181,12768.7352162,0
1643563195181,12768.7352192,-30
1643563195181,12768.7352222,-28
1643563195181,12768.735225,-28
1643563195181,12768.735228,-33
1643563195181,12768.7352308,-23
1643563195181,12768.7352337,-14
1643563195203,12768.7352366,-11
1643563195203,12768.7352395,-11
1643563195203,12768.7352424,16
1643563195203,12768.735248,163
1643563195203,12768.7352511,520
1643563195203,12768.735254,880
1643563195203,12768.735257,722
1643563195203,12768.7352599,-104
1643563195203,12768.735263,-911
1643563195203,12768.735266,-904
1643563195225,12768.7352689,-314
1643563195225,12768.7352719,-4
1643563195225,12768.7352748,-18
1643563195225,12768.7352778,21
1643563195225,12768.7352808,63
1643563195225,12768.7352838,42
1643563195225,12768.7352868,52
1643563195225,12768.7352897,78
1643563195225,12768.7352926,78
1643563195225,12768.7352955,82
1643563195247,12768.7352985,97
1643563195247,12768.7353014,106
1643563195247,12768.7353044,118
1643563195247,12768.7353073,132
1643563195247,12768.7353103,149
1643563195247,12768.7353132,170
1643563195247,12768.7353161,189
1643563195247,12768.7353191,210
1643563195247,12768.735322,241
1643563195247,12768.7353249,267
1643563195270,12768.7353279,293
1643563195270,12768.7353308,319
1643563195270,12768.7353338,333
1643563195270,12768.7353367,343
1643563195270,12768.7353396,348
1643563195270,12768.7353426,341
1643563195270,12769.1909274,329
1643563195270,12769.1909412,303
1643563195270,12769.190946,248
1643563195270,12769.1909513,175
1643563195292,12769.1909544,99
1643563195292,12769.1909578,21
1643563195292,12769.190963,-44
1643563195292,12769.1909661,-92
1643563195292,12769.1909693,-125
1643563195292,12769.1909744,-146
1643563195292,12769.1909774,-170
1643563195292,12769.1909803,-194
1643563195292,12769.1909832,-184
1643563195292,12769.1909862,-161
1643563195315,12769.1909891,-153
1643563195315,12769.1910056,-144
1643563195315,12769.1910494,-127
1643563195315,12769.1910676,-125
1643563195847,12769.1910874,-130
1643563195847,12769.1910986,-125
1643563195847,12769.1911042,-113
1643563195847,12769.1911192,-108
1643563195847,12769.1911365,-104
1643563195847,12769.1911415,-99
1643563195847,12769.1911514,-92
1643563195847,12769.1911552,-89
1643563195847,12769.1911581,-92
1643563195847,12769.191161,-89
1643563195868,12769.1911639,-82
1643563195868,12769.1911742,-82
1643563195868,12769.1911794,-87
1643563195868,12769.1911824,-87
1643563195868,12769.1911853,-85
1643563195868,12769.1911881,-80
1643563195868,12769.1911966,-78
1643563195868,12769.1912066,-75
1643563195868,12769.19121,-71
1643563195868,12769.191213,-66
1643563195891,12769.1912159,-61
1643563195891,12769.1912202,-61
1643563195891,12769.1912248,-59
1643563195891,12769.1912303,-47
1643563195891,12769.1912336,-42
1643563195891,12769.1912387,-44
1643563195891,12769.191242,-42
1643563195891,12769.1912475,-30
1643563195891,12769.1912506,-33
1643563195891,12769.1912536,-37
1643563195914,12769.1912565,-16
1643563195914,12769.1912606,11
1643563195914,12769.1912636,23
1643563195914,12769.1912668,42
1643563195914,12769.1912728,66
1643563195914,12769.191276,56
1643563195914,12769.191281,14
1643563195914,12769.1912918,-9
1643563195914,12769.1913344,-14
1643563195914,12769.1913428,-16
1643563195936,12769.1913466,-11
1643563195936,12769.1913496,-4
1643563195936,12769.1913526,-2
1643563195936,12769.1913555,-7
1643563195936,12769.1913588,2
1643563195936,12769.1915125,49
1643563195936,12769.191582,222
1643563195936,12769.1917318,594
1643563195936,12769.1917524,866
1643563195936,12769.1917572,492
1643563195958,12769.1917607,-435
1643563195958,12769.1917647,-1077
1643563195958,12769.1917676,-843
1643563195958,12769.1917779,-220
1643563195958,12769.1917824,30
1643563195958,12769.8854385,16
1643563195958,12769.8854504,75
1643563195958,12769.8854539,106
1643563195958,12769.8854569,80
1643563195958,12769.8854598,92
1643563195984,12769.8854626,118
1643563195984,12769.8854654,118
1643563195984,12769.8854683,125
1643563195984,12769.8854711,132
1643563195984,12769.8854739,116
1643563195984,12769.8854767,104
1643563195984,12769.8854795,132
1643563195984,12769.8854823,168
1643563195984,12769.8854851,189
1643563195984,12769.8854879,220
1643563196004,12769.8854907,255
1643563196004,12769.8854935,286
1643563196004,12769.8854964,322
1643563196004,12769.8854992,369
1643563196270,12769.885502,400
1643563196270,12769.8855048,407
1643563196270,12769.8855076,407
1643563196270,12769.8855104,400
1643563196270,12769.8855132,393
1643563196270,12769.885516,371
1643563196270,12769.8855188,312
1643563196270,12769.8855216,220
1643563196270,12769.8855244,123
1643563196270,12769.8855272,35
1643563196291,12769.88553,-47
1643563196291,12769.8855328,-120
1643563196291,12769.8855356,-163
1643563196291,12769.8855384,-177
1643563196291,12769.8855412,-191
1643563196291,12769.885544,-203
1643563196291,12769.8855469,-189
1643563196291,12769.8855497,-170
1643563196291,12769.8855525,-163
1643563196291,12769.8855553,-151
1643563196314,12769.8855666,-134
1643563196314,12769.88557,-125
1643563196314,12769.8855729,-118
1643563196314,12769.8855758,-104
1643563196314,12769.8855787,-92
1643563196314,12769.8855817,-85
1643563196314,12769.8855846,-82
1643563196314,12769.8855875,-87
1643563196314,12769.8855903,-82
1643563196314,12769.8855937,-78
1643563196337,12769.8855966,-82
1643563196337,12769.8856313,-87
1643563196337,12769.8856372,-73
1643563196337,12769.8856403,-66
1643563196337,12769.8856431,-73
1643563196337,12769.8856459,-80
1643563196337,12769.8856489,-75
1643563196337,12769.8856537,-73
1643563196337,12769.88566,-73
1643563196337,12769.8856632,-66
1643563196363,12769.885668,-54
1643563196363,12769.8856711,-56
1643563196363,12769.8856752,-71
1643563196363,12769.8856784,-61
1643563196363,12769.8856831,-42
1643563196363,12769.8856878,-47
1643563196363,12769.8856927,-54
1643563196363,12769.8856956,-33
1643563196363,12769.8856987,-9
1643563196363,12769.8857036,-7
1643563196381,12769.8857082,7
1643563196381,12769.8857133,40
1643563196381,12769.8857164,42
1643563196381,12769.8857205,7
1643563196381,12770.2927531,-26
1643563196381,12770.292767,-33
1643563196381,12770.2927713,-33
1643563196381,12770.2927747,-42
1643563196381,12770.2927791,-42
1643563196381,12770.2927824,-33
1643563196404,12770.2927876,-33
1643563196404,12770.2927927,-35
1643563196404,12770.292818,9
1643563196404,12770.2928269,179
1643563196404,12770.2928321,523
1643563196404,12770.2928355,755
1643563196404,12770.2928407,367
1643563196404,12770.292844,-558
1643563196404,12770.2928492,-1184
1643563196404,12770.2928527,-925
1643563196425,12770.2928577,-279
1643563196425,12770.2928608,-16
1643563196425,12770.2928641,-16
1643563196425,12770.2928689,56
1643563196803,12770.2928733,87
1643563196803,12770.2928764,54
1643563196803,12770.2928793,71
1643563196803,12770.2928823,99
1643563196803,12770.2928853,94
1643563196803,12770.2928882,99
1643563196803,12770.2928911,113
1643563196803,12770.292894,123
1643563196803,12770.2928969,144
1643563196803,12770.2928999,172
1643563196825,12770.2929233,194
1643563196825,12770.2929351,222
1643563196825,12770.2929384,258
1643563196825,12770.2929416,296
1643563196825,12770.2929445,331
1643563196825,12770.2929474,371
1643563196825,12770.2929504,407
1643563196825,12770.2929533,431
1643563196825,12770.2929562,449
1643563196825,12770.2929591,459
1643563196847,12770.2929621,449
1643563196847,12770.2929651,421
1643563196847,12770.292968,374
1643563196847,12770.2929709,298
1643563196847,12770.2929739,194
1643563196847,12770.2929769,85
1643563196847,12770.2929798,-9
1643563196847,12770.2929976,-87
1643563196847,12770.2930191,-144
1643563196847,12770.293023,-177
1643563196871,12770.293026,-191
1643563196871,12770.293029,-198
1643563196871,12770.293032,-196
1643563196871,12770.2930349,-187
1643563196871,12770.2930379,-175
1643563196871,12770.2930408,-158
1643563196871,12770.2930437,-142
1643563196871,12770.2930467,-125
1643563196871,12770.2930496,-116
1643563196871,12770.2930525,-108
1643563196892,12770.2930555,-104
1643563196892,12770.2930585,-97
1643563196892,12770.2930615,-82
1643563196892,12770.2930644,-73
1643563196892,12770.2930674,-71
1643563196892,12770.2930703,-68
1643563196892,12770.2930733,-71
1643563196892,12770.2930762,-71
1643563196892,12770.2930792,-73
1643563196892,12770.2930821,-80
1643563196914,12770.2930853,-80
1643563196914,12770.2930882,-75
1643563196914,12770.2930911,-78
1643563196914,12770.8419224,-75
1643563196914,12770.8419358,-68
1643563196914,12770.8419395,-66
1643563196914,12770.8419448,-71
1643563196914,12770.841965,-71
1643563196914,12770.8419755,-75
1643563196914,12770.841991,-92
1643563196936,12770.8419967,-101
1643563196936,12770.842001,-92
1643563196936,12770.8420041,-82
1643563196936,12770.8420072,-66
1643563196936,12770.8420101,-49
1643563196936,12770.842013,-37
1643563196936,12770.842016,-11
1643563196936,12770.842019,11
1643563196936,12770.8420234,-7
1643563196936,12770.8420264,-44
1643563196959,12770.8420313,-61
1643563196959,12770.8420341,-59
1643563196959,12770.8420371,-56
1643563196959,12770.8420401,-52
1643563197358,12770.8420431,-42
1643563197358,12770.8420459,-37
1643563197358,12770.8420486,-23
1643563197358,12770.8420514,26
1643563197358,12770.8420541,187
1643563197358,12770.8420569,539
1643563197358,12770.84206,814
1643563197358,12770.8420627,459
1643563197358,12770.8420655,-464
1643563197358,12770.8420745,-1120
1643563197380,12770.8420925,-907
1643563197380,12770.8421047,-258
1643563197380,12770.8421107,35
1643563197380,12770.8421142,23
1643563197380,12770.842119,71
1643563197380,12770.8421221,113
1643563197380,12770.8421252,94
1643563197380,12770.8421301,99
1643563197380,12770.8421329,116
1643563197380,12770.8421359,118
1643563197403,12770.8421389,127
1643563197403,12770.842142,144
1643563197403,12770.842145,161
1643563197403,12770.8421478,177
1643563197403,12770.8421506,196
1643563197403,12770.8421536,213
1643563197403,12770.8421566,234
1643563197403,12770.8421598,262
1643563197403,12770.8421628,298
1643563197403,12770.8421658,336
1643563197426,12770.8421688,371
1643563197426,12770.8421742,402
1643563197426,12770.8421772,423
1643563197426,12770.8421822,438
1643563197426,12770.8421851,445
1643563197426,12770.8421879,438
1643563197426,12770.8421907,419
1643563197426,12770.8421934,381
1643563197426,12770.8421968,310
1643563197426,12770.842202,217
1643563197448,12770.8422051,118
1643563197448,12770.8422103,16
1643563197448,12770.8422135,-66
1643563197448,12770.8422182,-125
1643563197448,12770.8422213,-168
1643563197448,12770.8422242,-189
1643563197448,12770.8422273,-196
1643563197448,12770.8422302,-198
1643563197448,12770.8422331,-191
1643563197448,12770.8422362,-175
1643563197471,12770.8422404,-163
1643563197471,12770.8422434,-149
1643563197471,12771.391899,-127
1643563197471,12771.3919106,-113
1643563197471,12771.391914,-108
1643563197471,12771.391917,-104
1643563197471,12771.3919198,-116
1643563197471,12771.3919227,-142
1643563197471,12771.3919255,-137
1643563197471,12771.3919283,-116
1643563197492,12771.3919311,-111
1643563197492,12771.3919339,-111
1643563197492,12771.3919367,-106
1643563197492,12771.3919396,-101
1643563197492,12771.3919425,-99
1643563197492,12771.3919453,-92
1643563197492,12771.3919481,-87
1643563197492,12771.3919509,-85
1643563197492,12771.3919537,-82
1643563197492,12771.3919566,-80
1643563197515,12771.3919594,-78
1643563197515,12771.3919623,-71
1643563197515,12771.3919651,-63
1643563197515,12771.3919679,-63
1643563198003,12771.3919708,-61
1643563198003,12771.3919736,-54
1643563198003,12771.3919764,-49
1643563198003,12771.3919793,-52
1643563198003,12771.3919822,-56
1643563198003,12771.391985,-54
1643563198003,12771.3919878,-42
1643563198003,12771.3919906,-30
1643563198003,12771.3919935,-21
1643563198003,12771.3919963,7
1643563198025,12771.3919991,35
1643563198025,12771.3920019,23
1643563198025,12771.3920048,-11
1643563198025,12771.3920076,-35
1643563198025,12771.3920104,-37
1643563198025,12771.3920132,-37
1643563198025,12771.392016,-33
1643563198025,12771.3920189,-26
1643563198025,12771.3920217,-26
1643563198025,12771.3920245,-18
1643563198047,12771.3920273,2
1643563198047,12771.3920301,66
1643563198047,12771.392033,281
1643563198047,12771.3920358,691
1643563198047,12771.3920387,902
1643563198047,12771.3920415,383
1643563198047,12771.3920443,-594
1643563198047,12771.3920471,-1079
1643563198047,12771.39205,-682
1643563198047,12771.3920528,-111
1643563198069,12771.3920557,35
1643563198069,12771.3920585,23
1643563198069,12771.3920613,85
1643563198069,12771.3920641,106
1643563198069,12771.3920669,87
1643563198069,12771.3920697,92
1643563198069,12771.3920726,106
1643563198069,12771.3920754,118
1643563198069,12771.3920782,139
1643563198069,12771.392081,153
1643563198091,12771.3920839,161
1643563198091,12771.3920867,172
1643563198091,12771.3920895,194
1643563198091,12771.3920924,217
1643563198091,12771.3920952,248
1643563198091,12771.392098,284
1643563198091,12771.3921008,317
1643563198091,12771.3921036,352
1643563198091,12771.3921064,388
1643563198091,12771.3921092,421
1643563198114,12771.392112,435
1643563198114,12772.0413371,431
1643563198114,12772.0413489,438
1643563198114,12772.0413528,438
1643563198114,12772.0413559,383
1643563198114,12772.0413588,307
1643563198114,12772.0413619,251
1643563198114,12772.0413648,179
1643563198114,12772.0413689,66
1643563198114,12772.0413718,-37
1643563198146,12772.0413756,-108
1643563198146,12772.0413789,-158
1643563198146,12772.0413824,-194
1643563198146,12772.041386,-210
1643563198146,12772.0413894,-215
1643563198146,12772.0413923,-215
1643563198146,12772.0413952,-206
1643563198146,12772.0413993,-196
1643563198146,12772.0414028,-187
1643563198146,12772.0414057,-168
1643563198163,12772.0414096,-149
1643563198163,12772.0414133,-139
1643563198163,12772.0414168,-134
1643563198163,12772.0414205,-120
1643563198603,12772.0414245,-111
1643563198603,12772.0414281,-111
1643563198603,12772.0414314,-106
1643563198603,12772.0414345,-92
1643563198603,12772.0414374,-87
1643563198603,12772.0414403,-87
1643563198603,12772.0414436,-87
1643563198603,12772.0414465,-80
1643563198603,12772.0414498,-73
1643563198603,12772.0414527,-78
1643563198627,12772.0414559,-85
1643563198627,12772.0414588,-82
1643563198627,12772.0414624,-78
1643563198627,12772.0414653,-78
1643563198627,12772.0414681,-75
1643563198627,12772.0414718,-68
1643563198627,12772.0414753,-61
1643563198627,12772.0414782,-56
1643563198627,12772.0414815,-54
1643563198627,12772.0414852,-54
1643563198648,12772.0414887,-47
1643563198648,12772.0414916,-40
1643563198648,12772.041495,-40
1643563198648,12772.0414982,-49
1643563198648,12772.0415015,-42
1643563198648,12772.0415047,-23
1643563198648,12772.041508,-21
1643563198648,12772.041511,-7
1643563198648,12772.0415149,23
1643563198648,12772.0415184,23
1643563198670,12772.0415215,-9
1643563198670,12772.0415247,-42
1643563198670,12772.0415279,-49
1643563198670,12772.0415311,-47
1643563198670,12772.0415341,-37
1643563198670,12772.0415376,-26
1643563198670,12772.0415405,-26
1643563198670,12772.0415437,-28
1643563198670,12772.0415473,-9
1643563198670,12772.0415502,54
1643563198694,12772.0415538,265
1643563198694,12772.0415571,653
1643563198694,12772.0415603,845
1643563198694,12772.0415635,348
1643563198694,12772.0415673,-577
1643563198694,12772.0415702,-1063
1643563198694,12772.0415737,-700
1643563198694,12772.0415771,-118
1643563198694,12772.0415801,40
1643563198694,12772.0415829,21
1643563198718,12772.6398583,97
1643563198718,12772.6398845,113
1643563198718,12772.6399127,87
1643563198718,12772.6399191,111
1643563198718,12772.6399223,132
1643563198718,12772.6399253,130
1643563198718,12772.6399281,142
1643563198718,12772.639931,161
1643563198718,12772.6399339,168
1643563198718,12772.6399482,177
1643563198736,12772.639963,196
1643563198736,12772.639968,224
1643563198736,12772.6399711,260
1643563198736,12772.640022,286
1643563198736,12772.6400281,291
1643563198736,12772.640039,296
1643563198736,12772.640042,331
1643563198736,12772.6400449,371
1643563198736,12772.6400478,388
1643563198736,12772.6400623,393
1643563198758,12772.6400723,393
1643563198758,12772.640081,386
1643563198758,12772.6400844,364
1643563198758,12772.6400873,314
1643563199158,12772.6400901,243
1643563199158,12772.640093,149
1643563199158,12772.6400959,42
1643563199158,12772.6400987,-54
1643563199158,12772.6401016,-120
1643563199158,12772.6401044,-163
1643563199158,12772.6401072,-187
1643563199158,12772.64011,-208
1643563199158,12772.6401128,-227
1643563199158,12772.6401157,-224
1643563199180,12772.6401185,-206
1643563199180,12772.6401213,-191
1643563199180,12772.6401242,-175
1643563199180,12772.640127,-158
1643563199180,12772.6401298,-149
1643563199180,12772.6401327,-144
1643563199180,12772.6401355,-146
1643563199180,12772.6401383,-144
1643563199180,12772.6401412,-130
1643563199180,12772.640144,-123
1643563199202,12772.6401468,-120
1643563199202,12772.6401577,-108
1643563199202,12772.6401609,-106
1643563199202,12772.6401637,-106
1643563199202,12772.6401666,-104
1643563199202,12772.6401694,-101
1643563199202,12772.6401722,-97
1643563199202,12772.6401807,-87
1643563199202,12772.6401916,-78
1643563199202,12772.6401954,-80
1643563199224,12772.6401985,-85
1643563199224,12772.640208,-80
1643563199224,12772.6402119,-73
1643563199224,12772.6402148,-73
1643563199224,12772.6402176,-68
1643563199224,12772.6402205,-66
1643563199224,12772.6402233,-61
1643563199224,12772.6402261,-56
1643563199224,12772.640229,-54
1643563199224,12772.6402318,-49
1643563199247,12772.6402345,-42
1643563199247,12772.6402373,-30
1643563199247,12772.6402465,-28
1643563199247,12772.6403083,-30
1643563199247,12772.6403444,-35
1643563199247,12772.6403575,-28
1643563199247,12772.6403619,-18
1643563199247,12772.6403649,-28
1643563199247,12772.6403744,-37
1643563199247,12773.1851643,-18
1643563199270,12773.1851773,11
1643563199270,12773.1851811,18
1643563199270,12773.1851863,30
1643563199270,12773.1851902,61
1643563199270,12773.1851952,54
1643563199270,12773.1851983,11
1643563199270,12773.1852033,-16
1643563199270,12773.1852063,-14
1643563199270,12773.1852095,-14
1643563199270,12773.1852144,-21
1643563199291,12773.1852192,-16
1643563199291,12773.1852242,-9
1643563199291,12773.1852291,-16
1643563199291,12773.185234,-9
1643563199291,12773.1852371,47
1643563199291,12773.1852421,253
1643563199291,12773.1852467,663
1643563199291,12773.1852518,897
1643563199291,12773.185255,433
1643563199291,12773.1852599,-509
1643563199313,12773.1852671,-1082
1643563199313,12773.1852724,-800
1643563199313,12773.1852755,-196
1643563199313,12773.1852788,9
1643563199669,12773.1852829,-23
1643563199669,12773.185286,33
1643563199669,12773.1852889,68
1643563199669,12773.1852918,47
1643563199669,12773.1852947,66
1643563199669,12773.1852976,82
1643563199669,12773.1853005,68
1643563199669,12773.1853033,71
1643563199669,12773.1853062,87
1643563199669,12773.1853091,99
1643563199692,12773.1853121,118
1643563199692,12773.185315,144
1643563199692,12773.1853179,163
1643563199692,12773.1853208,184
1643563199692,12773.1853237,210
1643563199692,12773.1853266,234
1643563199692,12773.1853311,265
1643563199692,12773.1853343,312
1643563199692,12773.1853397,343
1643563199692,12773.1853428,355
1643563199716,12773.1853459,364
1643563199716,12773.1853509,371
1643563199716,12773.1853538,364
1643563199716,12773.185357,350
1643563199716,12773.1853619,322
1643563199716,12773.1853649,265
1643563199716,12773.1853681,184
1643563199716,12773.1853734,104
1643563199716,12773.1853772,18
1643563199716,12773.1853823,-66
1643563199737,12773.1853854,-125
1643563199737,12773.1853902,-163
1643563199737,12773.1853933,-194
1643563199737,12773.1853982,-208
1643563199737,12773.1854013,-206
1643563199737,12773.1854062,-203
1643563199737,12773.1854108,-194
1643563199737,12773.185416,-170
1643563199737,12773.1854197,-163
1643563199737,12773.1854245,-165
1643563199758,12773.1854275,-153
1643563199758,12773.1854306,-134
1643563199758,12773.1854355,-123
1643563199758,12773.1854387,-111
1643563199758,12773.1854436,-101
1643563199758,12773.1854479,-97
1643563199758,12773.1854528,-97
1643563199758,12773.1854561,-94
1643563199758,12773.6911145,-87
1643563199758,12773.6911272,-82
1643563199780,12773.6911313,-80
1643563199780,12773.6911365,-78
1643563199780,12773.6911396,-78
1643563199780,12773.6911447,-80
1643563199780,12773.6911492,-78
1643563199780,12773.6911547,-68
1643563199780,12773.6911585,-63
1643563199780,12773.6911637,-63
1643563199780,12773.6911667,-66
1643563199780,12773.6911708,-82
1643563199803,12773.6911739,-104
1643563199803,12773.6911789,-101
1643563199803,12773.6911818,-87
1643563199803,12773.691185,-85
1643563199803,12773.6911898,-80
1643563199803,12773.6911944,-75
1643563199803,12773.6911992,-75
1643563199803,12773.6912036,-75
1643563199803,12773.6912084,-66
1643563199803,12773.6912129,-59
1643563199824,12773.6912176,-59
1643563199824,12773.6912221,-61
1643563199824,12773.6912269,-63
1643563199824,12773.6912298,-71
1643563200202,12773.6912329,-66
1643563200202,12773.6912358,-52
1643563200202,12773.6912386,-47
1643563200202,12773.6912414,-49
1643563200202,12773.6912443,-44
1643563200202,12773.6912471,-37
1643563200202,12773.6912499,-42
1643563200202,12773.6912527,-42
1643563200202,12773.6912555,-21
1643563200202,12773.6912583,4
1643563200226,12773.6912611,11
1643563200226,12773.6912639,26
1643563200226,12773.6912694,54
1643563200226,12773.6912725,49
1643563200226,12773.6912753,14
1643563200226,12773.6912782,-14
1643563200226,12773.691281,-16
1643563200226,12773.6912838,-21
1643563200226,12773.6912866,-23
1643563200226,12773.6912894,-14
1643563200246,12773.6912922,-11
1643563200246,12773.691295,-14
1643563200246,12773.6912978,-2
1643563200246,12773.6913007,44
1643563200246,12773.6913036,227
1643563200246,12773.6913064,634
1643563200246,12773.6913093,956
1643563200246,12773.691312,601
1643563200246,12773.6913149,-369
1643563200246,12773.6913176,-1034
1643563200269,12773.6913204,-790
1643563200269,12773.6913232,-196
1643563200269,12773.6913261,9
1643563200269,12773.6913291,-4
1643563200269,12773.691332,59
1643563200269,12773.6913347,87
1643563200269,12773.6913376,71
1643563200269,12773.6913404,87
1643563200269,12773.6913433,106
1643563200269,12773.6913461,101
1643563200291,12773.6913489,106
1643563200291,12773.6913518,130
1643563200291,12773.6913572,144
1643563200291,12773.6913602,151
1643563200291,12773.6913633,170
1643563200291,12773.691368,194
1643563200291,12773.6913709,220
1643563200291,12774.2415678,251
1643563200291,12774.2415816,281
1643563200291,12774.2415854,317
1643563200313,12774.2415907,345
1643563200313,12774.2415957,371
1643563200313,12774.2416007,400
1643563200313,12774.2416038,423
1643563200313,12774.2416089,431
1643563200313,12774.2416136,426
1643563200313,12774.2416187,412
1643563200313,12774.2416226,362
1643563200313,12774.2416277,281
1643563200313,12774.2416309,208
1643563200336,12774.2416357,120
1643563200336,12774.2416388,18
1643563200336,12774.2416439,-63
1643563200336,12774.2416469,-127
1643563200336,12774.2416501,-182
1643563200336,12774.2416551,-213
1643563200336,12774.2416599,-222
1643563200336,12774.2416651,-215
1643563200336,12774.2416688,-208
1643563200336,12774.241674,-203
1643563200358,12774.2416774,-191
1643563200358,12774.2416822,-170
1643563200358,12774.2416865,-158
1643563200358,12774.2416915,-149
1643563200759,12774.241696,-130
1643563200759,12774.2416991,-118
1643563200759,12774.2417019,-120
1643563200759,12774.2417048,-111
1643563200759,12774.2417077,-99
1643563200759,12774.2417106,-99
1643563200759,12774.2417134,-92
1643563200759,12774.2417162,-80
1643563200759,12774.2417191,-85
1643563200759,12774.241722,-89
1643563200780,12774.2417248,-82
1643563200780,12774.2417276,-78
1643563200780,12774.2417305,-78
1643563200780,12774.2417334,-75
1643563200780,12774.2417363,-73
1643563200780,12774.2417392,-75
1643563200780,12774.2417421,-73
1643563200780,12774.2417449,-61
1643563200780,12774.2417478,-61
1643563200780,12774.2417507,-73
1643563200804,12774.2417536,-66
1643563200804,12774.2417565,-56
1643563200804,12774.2417594,-56
1643563200804,12774.2417623,-52
1643563200804,12774.2417652,-40
1643563200804,12774.2417682,-40
1643563200804,12774.2417714,-42
1643563200804,12774.2417744,-40
1643563200804,12774.2417789,-37
1643563200804,12774.2417821,-30
1643563200825,12774.2417876,-26
1643563200825,12774.2417908,-23
1643563200825,12774.2417957,-21
1643563200825,12774.2417987,-16
1643563200825,12774.2418018,-14
1643563200825,12774.2418069,-16
1643563200825,12774.2418106,-9
1643563200825,12774.2418137,-4
1643563200825,12774.2418186,-4
1643563200825,12774.2418216,0
1643563200847,12774.2418248,-2
1643563200847,12774.2418297,-9
1643563200847,12774.2418343,4
1643563200847,12774.2418393,23
1643563200847,12774.2418439,30
1643563200847,12774.2418488,59
1643563200847,12774.7916483,85
1643563200847,12774.7916603,63
1643563200847,12774.7916638,21
1643563200847,12774.7916669,0
1643563200869,12774.79167,-11
1643563200869,12774.7916731,-21
1643563200869,12774.791676,-14
1643563200869,12774.7916791,-9
1643563200869,12774.7916845,-35
1643563200869,12774.7916879,-63
1643563200869,12774.7916928,-52
1643563200869,12774.7916957,33
1643563200869,12774.7916988,277
1643563200869,12774.7917019,679
1643563200891,12774.7917046,776
1643563200891,12774.7917076,113
1643563200891,12774.7917106,-854
1643563200891,12774.7917136,-1162
1643563200891,12774.7917166,-660
1643563200891,12774.7917276,-149
1643563200891,12774.7917434,-37
1643563200891,12774.7917487,-7
1643563200891,12774.7917519,63
1643563200891,12774.791755,68
1643563200914,12774.7917606,59
1643563200914,12774.7917656,87
1643563200914,12774.7917698,99
1643563200914,12774.7917728,97
1643563201357,12774.7917758,108
1643563201357,12774.7917851,125
1643563201357,12774.7917886,144
1643563201357,12774.7917914,163
1643563201357,12774.7917941,182
1643563201357,12774.7918324,206
1643563201357,12774.7918448,229
1643563201357,12774.7918493,258
1643563201357,12774.7918522,296
1643563201357,12774.7918549,333
1643563201380,12774.7918577,364
1643563201380,12774.7918604,395
1643563201380,12774.7918631,421
1643563201380,12774.7918659,435
1643563201380,12774.7918686,435
1643563201380,12774.7918713,426
1643563201380,12774.791874,402
1643563201380,12774.7918861,359
1643563201380,12774.7918942,291
1643563201380,12774.7918974,196
1643563201402,12774.7919002,97
1643563201402,12774.7919086,9
1643563201402,12774.7919158,-59
1643563201402,12774.7919187,-116
1643563201402,12774.7919217,-156
1643563201402,12774.7919246,-170
1643563201402,12774.7919275,-172
1643563201402,12774.7919304,-172
1643563201402,12774.7919335,-163
1643563201402,12774.7919364,-151
1643563201425,12774.7919393,-139
1643563201425,12774.7919422,-120
1643563201425,12774.7919451,-106
1643563201425,12774.7919479,-99
1643563201425,12774.7919508,-87
1643563201425,12774.7919538,-75
1643563201425,12774.7919568,-68
1643563201425,12774.7919596,-68
1643563201425,12774.7919625,-63
1643563201425,12774.7919655,-56
1643563201446,12774.7919684,-59
1643563201446,12774.7919713,-66
1643563201446,12774.7919741,-61
1643563201446,12774.7919771,-54
1643563201446,12774.7919802,-59
1643563201446,12775.3916362,-61
1643563201446,12775.3916479,-59
1643563201446,12775.3916513,-61
1643563201446,12775.3916544,-68
1643563201446,12775.3916573,-66
1643563201469,12775.3916602,-66
1643563201469,12775.3916631,-78
1643563201469,12775.3916659,-99
1643563201469,12775.3916701,-106
1643563201469,12775.3919271,-94
1643563201469,12775.3919433,-89
1643563201469,12775.3919474,-89
1643563201469,12775.3919505,-78
1643563201469,12775.3919534,-78
1643563201469,12775.3919562,-85
1643563201491,12775.3919591,-75
1643563201491,12775.391963,-63
1643563201491,12775.3919662,-59
1643563201491,12775.391971,-54
1643563201491,12775.391974,-56
1643563201491,12775.3919769,-63
1643563201491,12775.3919807,-61
1643563201491,12775.3919844,-49
1643563201491,12775.3919877,-47
1643563201491,12775.3919907,-47
1643563201513,12775.3919941,-42
1643563201513,12775.3919974,-40
1643563201513,12775.3920003,-42
1643563201513,12775.3920032,-54
1643563201915,12775.3920064,-68
1643563201915,12775.3920097,-49
1643563201915,12775.3920126,-23
1643563201915,12775.3920162,-23
1643563201915,12775.3920197,-11
1643563201915,12775.3920232,28
1643563201915,12775.3920265,30
1643563201915,12775.3920298,-9
1643563201915,12775.3920331,-35
1643563201915,12775.392037,-40
1643563201944,12775.3920405,-47
1643563201944,12775.3920437,-49
1643563201944,12775.3920469,-37
1643563201944,12775.3920497,-28
1643563201944,12775.3920527,-26
1643563201944,12775.3920559,-16
1643563201944,12775.3920591,30
1643563201944,12775.3920623,203
1643563201944,12775.3920654,589
1643563201944,12775.3920685,895
1643563201964,12775.3920716,563
1643563201964,12775.3920749,-341
1643563201964,12775.3920778,-989
1643563201964,12775.3920808,-805
1643563201964,12775.392084,-229
1643563201964,12775.3920877,16
1643563201964,12775.3920906,2
1643563201964,12775.3920936,54
1643563201964,12775.3920975,89
1643563201964,12775.392101,71
1643563201982,12775.3921041,80
1643563201982,12775.3921076,99
1643563201982,12775.3921109,101
1643563201982,12775.3921142,113
1643563201982,12775.3921175,130
1643563201982,12775.3921217,142
1643563201982,12775.3921249,156
1643563201982,12775.392129,177
1643563201982,12775.3921319,194
1643563201982,12775.3921352,206
1643563202002,12775.3921381,232
1643563202002,12775.3921417,269
1643563202002,12775.3921446,303
1643563202002,12775.3921475,331
1643563202002,12775.9411353,369
1643563202002,12775.9411481,400
1643563202002,12775.9411517,412
1643563202002,12775.9411568,416
1643563202002,12775.9411598,421
1643563202002,12775.9411628,412
1643563202025,12775.9411657,381
1643563202025,12775.9411687,331
1643563202025,12775.9411717,255
1643563202025,12775.9411747,163
1643563202025,12775.9411777,71
1643563202025,12775.9411807,-21
1643563202025,12775.9411858,-113
1643563202025,12775.9411887,-177
1643563202025,12775.9411916,-198
1643563202025,12775.9411946,-203
1643563202051,12775.9411975,-208
1643563202051,12775.9412005,-203
1643563202051,12775.9412036,-198
1643563202051,12775.9412065,-191
1643563202051,12775.9412094,-177
1643563202051,12775.9412124,-161
1643563202051,12775.9412153,-146
1643563202051,12775.9412182,-134
1643563202051,12775.9412211,-123
1643563202051,12775.941224,-113
1643563202069,12775.9412269,-101
1643563202069,12775.9412299,-99
1643563202069,12775.9412328,-99
1643563202069,12775.9412357,-87
1643563202469,12775.9412387,-80
1643563202469,12775.9412416,-89
1643563202469,12775.9412444,-92
1643563202469,12775.9412472,-75
1643563202469,12775.9412499,-68
1643563202469,12775.9412526,-75
1643563202469,12775.9412554,-71
1643563202469,12775.9412581,-49
1643563202469,12775.9412608,-42
1643563202469,12775.9412636,-61
1643563202496,12775.9412663,-78
1643563202496,12775.9412691,-75
1643563202496,12775.9412718,-66
1643563202496,12775.9412745,-66
1643563202496,12775.9412773,-66
1643563202496,12775.9412803,-61
1643563202496,12775.9412878,-63
1643563202496,12775.9412908,-61
1643563202496,12775.9413395,-59
1643563202496,12775.9413753,-59
1643563202512,12775.9413882,-61
1643563202512,12775.9413924,-66
1643563202512,12775.9413956,-68
1643563202512,12775.9413985,-56
1643563202512,12775.9414013,-44
1643563202512,12775.9414041,-49
1643563202512,12775.9414081,-40
1643563202512,12775.9414113,-33
1643563202512,12775.9414142,-40
1643563202512,12775.9414172,-35
1643563202535,12775.9414202,-33
1643563202535,12775.9414233,-47
1643563202535,12775.9414263,-42
1643563202535,12775.9414313,-33
1643563202535,12775.9414343,-33
1643563202535,12775.9414373,-11
1643563202535,12775.9414404,14
1643563202535,12775.9414449,0
1643563202535,12775.9414479,-23
1643563202535,12775.9414508,14
1643563202557,12775.9414568,59
1643563202557,12775.9414597,37
1643563202557,12775.9414625,-4
1643563202557,12776.4911048,-21
1643563202557,12776.4911187,-23
1643563202557,12776.4911226,-23
1643563202557,12776.4911281,-21
1643563202557,12776.4911313,-16
1643563202557,12776.4911368,-9
1643563202557,12776.4911399,0
1643563202580,12776.4911429,7
1643563202580,12776.491146,63
1643563202580,12776.4911513,286
1643563202580,12776.4911545,691
1643563202580,12776.4911595,956
1643563202580,12776.4911627,606
1643563202580,12776.4911678,-296
1643563202580,12776.491171,-930
1643563202580,12776.491176,-731
1643563202580,12776.4911793,-227
1643563202603,12776.4911844,-54
1643563202603,12776.4911877,-59
1643563202603,12776.4911924,-2
1643563202603,12776.4911967,21
1643563202603,12776.4911996,4
1643563202603,12776.4912038,23
1643563202603,12776.4912094,44
1643563202603,12776.4912127,40
1643563202603,12776.491216,49
1643563202603,12776.491219,68
1643563202624,12776.4912221,80
1643563202624,12776.4912276,92
1643563202624,12776.4912582,108
1643563202624,12776.491266,127
1643563203002,12776.4912696,144
1643563203002,12776.4912735,170
1643563203002,12776.4912766,198
1643563203002,12776.4912795,229
1643563203002,12776.4912825,258
1643563203002,12776.4912881,281
1643563203002,12776.4912912,298
1643563203002,12776.4913839,319
1643563203002,12776.4913881,336
1643563203002,12776.4913912,343
1643563203031,12776.4913941,336
1643563203031,12776.491397,317
1643563203031,12776.4913998,284
1643563203031,12776.4914028,232
1643563203031,12776.4914058,161
1643563203031,12776.4914087,82
1643563203031,12776.4914116,11
1643563203031,12776.4914145,-52
1643563203031,12776.4914175,-101
1643563203031,12776.4914203,-139
1643563203075,12776.4914231,-149
1643563203075,12776.4914363,-149
1643563203075,12776.4914504,-153
1643563203075,12776.4914565,-158
1643563203075,12776.4914596,-153
1643563203075,12776.4914628,-137
1643563203075,12776.4914662,-125
1643563203075,12776.4914691,-113
1643563203075,12776.491472,-104
1643563203075,12776.4914749,-99
1643563203094,12776.4914778,-97
1643563203094,12776.4914807,-92
1643563203094,12776.4914836,-87
1643563203094,12776.4914866,-85
1643563203094,12776.4914894,-85
1643563203094,12776.4914923,-87
1643563203094,12776.4914952,-85
1643563203094,12776.4914995,-82
1643563203094,12776.4915026,-82
1643563203094,12776.4915057,-82
1643563203115,12776.4915097,-80
1643563203115,12776.4915127,-82
1643563203115,12777.041492,-92
1643563203115,12777.0415047,-99
1643563203115,12777.0415091,-99
1643563203115,12777.0415143,-97
1643563203115,12777.0415172,-94
1643563203115,12777.0415203,-92
1643563203115,12777.0415233,-87
1643563203115,12777.0415263,-80
1643563203136,12777.0415293,-85
1643563203136,12777.0415323,-111
1643563203136,12777.0415353,-125
1643563203136,12777.0415383,-106
1643563203136,12777.0415435,-92
1643563203136,12777.0415479,-94
1643563203136,12777.0415528,-92
1643563203136,12777.0415572,-89
1643563203136,12777.0415621,-82
1643563203136,12777.0415667,-73
1643563203155,12777.0415716,-73
1643563203155,12777.041576,-73
1643563203155,12777.0415931,-63
1643563203155,12777.0415969,-54
1643563203155,12777.0416024,-52
1643563203155,12777.0416055,-54
1643563203155,12777.0416094,-49
1643563203155,12777.0416126,-28
1643563203155,12777.0416166,-4
1643563203155,12777.0416198,7
1643563203180,12777.0416238,26
1643563203180,12777.0416269,52
1643563203180,12777.041631,40
1643563203180,12777.041634,2
1643563203701,12777.041637,-26
1643563203701,12777.0416398,-35
1643563203701,12777.0416426,-35
1643563203701,12777.0416454,-30
1643563203701,12777.0416482,-23
1643563203701,12777.041651,-16
1643563203701,12777.0416537,-16
1643563203701,12777.0416565,2
1643563203701,12777.0416592,82
1643563203701,12777.0416621,300
1643563203734,12777.0416649,686
1643563203734,12777.0416677,869
1643563203734,12777.0416705,324
1643563203734,12777.0416733,-660
1643563203734,12777.0416767,-1120
1643563203734,12777.0416797,-722
1643563203734,12777.0416827,-168
1643563203734,12777.0416857,2
1643563203734,12777.0416886,26
1643563203734,12777.0416916,99
1643563203770,12777.0416945,116
1643563203770,12777.0416975,99
1643563203770,12777.0417003,113
1643563203770,12777.0417033,130
1643563203770,12777.0417064,137
1643563203770,12777.0417106,149
1643563203770,12777.0417137,163
1643563203770,12777.0417167,175
1643563203770,12777.0417197,194
1643563203770,12777.0417441,215
1643563203802,12777.0417504,239
1643563203802,12777.0417535,262
1643563203802,12777.0417564,286
1643563203802,12777.0417593,314
1643563203802,12777.0417623,355
1643563203802,12777.0417652,393
1643563203802,12777.0417682,421
1643563203802,12777.0417711,452
1643563203802,12777.0417742,471
1643563203802,12777.0417771,473
1643563203835,12777.0417801,464
1643563203835,12777.7352748,442
1643563203835,12777.7352897,400
1643563203835,12777.7352935,329
1643563203835,12777.7352988,236
1643563203835,12777.7353607,134
1643563203835,12777.7353858,33
1643563203835,12777.7353919,-52
1643563203835,12777.7353954,-127
1643563203835,12777.7353994,-191
1643563203868,12777.7354023,-210
1643563203868,12777.7354051,-210
1643563203868,12777.735408,-217
1643563203868,12777.7354109,-215
1643563203868,12777.7354137,-198
1643563203868,12777.7354166,-184
1643563203868,12777.7354193,-172
1643563203868,12777.7354221,-156
1643563203868,12777.7354249,-142
1643563203868,12777.7354277,-130
1643563203902,12777.7354306,-120
1643563203902,12777.7354334,-113
1643563203902,12777.7354362,-106
1643563203902,12777.735439,-99
1643563203902,12777.7354418,-99
1643563203902,12777.7354447,-101
1643563203902,12777.7354475,-94
1643563203902,12777.7354505,-89
1643563203902,12777.7354533,-92
1643563203902,12777.7354561,-94
1643563203936,12777.735459,-97
1643563203936,12777.7354618,-99
1643563203936,12777.7354648,-97
1643563203936,12777.7354678,-92
1643563204166,12777.7354707,-97
1643563204166,12777.7354745,-101
1643563204166,12777.7354773,-94
1643563204166,12777.7354802,-92
1643563204166,12777.735483,-92
1643563204166,12777.7354858,-87
1643563204166,12777.7354886,-87
1643563204166,12777.7354914,-97
1643563204166,12777.7354942,-104
1643563204166,12777.735497,-92
1643563204190,12777.7354998,-82
1643563204190,12777.7355026,-82
1643563204190,12777.7355055,-78
1643563204190,12777.7355083,-73
1643563204190,12777.7355111,-80
1643563204190,12777.7355138,-85
1643563204190,12777.7355167,-66
1643563204190,12777.7355195,-40
1643563204190,12777.7355223,-30
1643563204190,12777.7355252,-11
1643563204214,12777.7355281,18
1643563204214,12777.7355308,18
1643563204214,12777.7355337,-18
1643563204214,12777.7355366,-52
1643563204214,12777.7355394,-61
1643563204214,12777.7355422,-59
1643563204214,12777.735545,-59
1643563204214,12777.7355478,-68
1643563204214,12777.7355506,-66
1643563204214,12777.7355534,-42
1643563204235,12777.7355562,-26
1643563204235,12777.735559,9
1643563204235,12777.7355618,172
1643563204235,12777.7355647,542
1643563204235,12777.7355676,847
1643563204235,12777.7355703,539
1643563204235,12777.7355732,-357
1643563204235,12777.735576,-1037
1643563204235,12777.7355788,-878
1643563204235,12777.7355816,-286
1643563204258,12778.1911359,-7
1643563204258,12778.1911477,-2
1643563204258,12778.1911514,56
1643563204258,12778.1911556,99
1643563204258,12778.1911585,78
1643563204258,12778.1911613,85
1643563204258,12778.1911646,106
1643563204258,12778.1911676,106
1643563204258,12778.1911704,116
1643563204258,12778.1911734,142
1643563204278,12778.1911762,151
1643563204278,12778.1911791,165
1643563204278,12778.1911819,184
1643563204278,12778.1911848,187
1643563204278,12778.1911877,208
1643563204278,12778.1911906,241
1643563204278,12778.1911935,274
1643563204278,12778.1911963,314
1643563204278,12778.1911991,350
1643563204278,12778.191202,371
1643563204301,12778.1912048,400
1643563204301,12778.1912077,428
1643563204301,12778.1912106,431
1643563204301,12778.1912134,423
1643563204301,12778.1912163,414
1643563204301,12778.1912192,378
1643563204301,12778.1912224,314
1643563204301,12778.1912252,227
1643563204301,12778.1912281,123
1643563204301,12778.191231,37
1643563204322,12778.1912338,-30
1643563204322,12778.1912366,-92
1643563204322,12778.1912394,-142
1643563204322,12778.1912423,-172
1643563204817,12778.1912451,-191
1643563204817,12778.191248,-191
1643563204817,12778.1912509,-184
1643563204817,12778.1912537,-177
1643563204817,12778.1912566,-170
1643563204817,12778.1912598,-163
1643563204817,12778.1912626,-156
1643563204817,12778.1912655,-149
1643563204817,12778.1912683,-139
1643563204817,12778.1912713,-134
1643563204850,12778.1912741,-137
1643563204850,12778.191277,-127
1643563204850,12778.1912798,-116
1643563204850,12778.1912829,-113
1643563204850,12778.1912858,-108
1643563204850,12778.1912921,-87
1643563204850,12778.1912951,-63
1643563204850,12778.191298,-68
1643563204850,12778.191301,-92
1643563204850,12778.1913038,-89
1643563204883,12778.1913068,-75
1643563204883,12778.1913097,-73
1643563204883,12778.1913125,-78
1643563204883,12778.1913155,-78
1643563204883,12778.1913184,-75
1643563204883,12778.1913214,-63
1643563204883,12778.1913242,-68
1643563204883,12778.191327,-82
1643563204883,12778.1913299,-80
1643563204883,12778.1913328,-71
1643563204917,12778.1913356,-66
1643563204917,12778.1913385,-56
1643563204917,12778.1913414,-47
1643563204917,12778.1913443,-49
1643563204917,12778.1913472,-54
1643563204917,12778.19135,-54
1643563204917,12778.1913528,-54
1643563204917,12778.1913557,-54
1643563204917,12778.1913585,-52
1643563204917,12778.8408691,-56
1643563204950,12778.8408817,-49
1643563204950,12778.8408853,-28
1643563204950,12778.8408906,-9
1643563204950,12778.8408939,2
1643563204950,12778.8408987,14
1643563204950,12778.8409034,28
1643563204950,12778.8409083,30
1643563204950,12778.8409113,0
1643563204950,12778.8409144,-40
1643563204950,12778.8409196,-56
1643563204984,12778.840924,-80
1643563204984,12778.8409289,-104
1643563204984,12778.8409958,-89
1643563204984,12778.8410018,-78
1643563204984,12778.841005,-78
1643563204984,12778.84101,-63
1643563204984,12778.8410145,-30
1643563204984,12778.8410191,82
1643563204984,12778.8410238,397
1643563204984,12778.8410285,800
1643563205017,12778.8410315,774
1643563205017,12778.8410347,9
1643563205017,12778.8410375,-883
1643563205017,12778.8410405,-1013
1643563205017,12778.841045,-499
1643563205017,12778.8410482,-151
1643563205017,12778.841053,-101
1643563205017,12778.8410562,-21
1643563205017,12778.8410996,47
1643563205017,12778.8411081,28
1643563205050,12778.8411117,30
1643563205050,12778.8411167,59
1643563205050,12778.8411198,54
1643563205050,12778.841124,66
1643563205252,12778.8411271,101
1643563205252,12778.8411301,108
1643563205252,12778.841133,108
1643563205252,12778.8411358,127
1643563205252,12778.8411386,153
1643563205252,12778.8411415,179
1643563205252,12778.8411443,213
1643563205252,12778.8411472,243
1643563205252,12778.8411501,269
1643563205252,12778.8411529,300
1643563205285,12778.8411558,341
1643563205285,12778.8411586,362
1643563205285,12778.8411615,374
1643563205285,12778.8411643,397
1643563205285,12778.8411671,395
1643563205285,12778.8411699,376
1643563205285,12778.8411728,359
1643563205285,12778.8411756,322
1643563205285,12778.8411784,265
1643563205285,12778.8411812,191
1643563205318,12778.8411843,111
1643563205318,12778.8411881,30
1643563205318,12778.8411913,-35
1643563205318,12778.8411962,-75
1643563205318,12778.8411992,-101
1643563205318,12778.8412023,-120
1643563205318,12778.8412065,-127
1643563205318,12778.8412096,-132
1643563205318,12778.8412145,-134
1643563205318,12778.8412175,-125
1643563205351,12778.8412206,-106
1643563205351,12778.8412254,-94
1643563205351,12778.8412296,-85
1643563205351,12778.8412345,-82
1643563205351,12778.8412382,-87
1643563205351,12778.8412417,-85
1643563205351,12778.8412457,-68
1643563205351,12778.8412489,-61
1643563205351,12779.2909663,-68
1643563205351,12779.2909801,-68
1643563205385,12779.2909835,-59
1643563205385,12779.2909867,-49
1643563205385,12779.2909915,-49
1643563205385,12779.2910332,-59
1643563205385,12779.2910406,-54
1643563205385,12779.2910443,-54
1643563205385,12779.2910495,-61
1643563205385,12779.2910527,-52
1643563205385,12779.2910566,-33
1643563205385,12779.2910609,-40
1643563205418,12779.291064,-59
1643563205418,12779.291068,-59
1643563205418,12779.2910727,-47
1643563205418,12779.2910756,-44
1643563205418,12779.2910798,-54
1643563205418,12779.2910852,-56
1643563205418,12779.2910882,-63
1643563205418,12779.2910913,-71
1643563205418,12779.2910961,-54
1643563205418,12779.2910992,-30
1643563205452,12779.2911046,-42
1643563205452,12779.2911075,-78
1643563205452,12779.2911107,-75
1643563205452,12779.2911158,-47
1643563205452,12779.2911201,-23
1643563205452,12779.2911255,-11
1643563205452,12779.2911285,-4
1643563205452,12779.2911338,-4
1643563205452,12779.2911368,-7
1643563205452,12779.2911399,-33
1643563205485,12779.2911431,-71
1643563205485,12779.2911474,-78
1643563205485,12779.2911506,-75
1643563205485,12779.2911557,-85
1643563205852,12779.2911587,-80
1643563205852,12779.2911619,-61
1643563205852,12779.2911648,-54
1643563205852,12779.2911677,-49
1643563205852,12779.2911705,-18
1643563205852,12779.2911734,108
1643563205852,12779.2911763,435
1643563205852,12779.2911792,835
1643563205852,12779.2911821,769
1643563205852,12779.291185,-52
1643563205886,12779.2911879,-947
1643563205886,12779.2911909,-1008
1643563205886,12779.2911937,-461
1643563205886,12779.2911966,-125
1643563205886,12779.2911996,-68
1643563205886,12779.2912028,14
1643563205886,12779.291206,71
1643563205886,12779.2912114,54
1643563205886,12779.2912148,61
1643563205886,12779.2912201,78
1643563205919,12779.2912232,80
1643563205919,12779.2912274,97
1643563205919,12779.291231,118
1643563205919,12779.2912364,132
1643563205919,12779.2912393,139
1643563205919,12779.2912425,153
1643563205919,12779.2912469,172
1643563205919,12779.29125,194
1643563205919,12779.2912541,217
1643563205919,12779.2912572,246
1643563205953,12779.2912615,277
1643563205953,12779.2912646,324
1643563205953,12779.2912688,374
1643563205953,12779.2912719,402
1643563205953,12779.2912763,412
1643563205953,12779.2912795,428
1643563205953,12779.2912845,438
1643563205953,12779.891876,423
1643563205953,12779.8919576,390
1643563205953,12779.8919656,336
1643563205992,12779.8919693,255
1643563205992,12779.8919726,163
1643563205992,12779.8919756,66
1643563205992,12779.8919785,-23
1643563205992,12779.8919813,-101
1643563205992,12779.891984,-175
1643563205992,12779.8919867,-210
1643563205992,12779.8919895,-191
1643563205992,12779.8919922,-189
1643563205992,12779.8919948,-222
1643563206019,12779.8919976,-224
1643563206019,12779.8920004,-196
1643563206019,12779.8920031,-179
1643563206019,12779.8920059,-177
1643563206019,12779.8920086,-168
1643563206019,12779.8920113,-146
1643563206019,12779.8920141,-139
1643563206019,12779.8920168,-142
1643563206019,12779.8920196,-120
1643563206019,12779.8920223,-94
1643563206052,12779.8920251,-99
1643563206052,12779.8920278,-101
1643563206052,12779.8920305,-82
1643563206052,12779.8920333,-78
1643563206052,12779.892036,-97
1643563206052,12779.8920387,-104
1643563206052,12779.8920415,-97
1643563206052,12779.8920442,-89
1643563206052,12779.8920469,-87
1643563206052,12779.8920497,-89
1643563206088,12779.8920524,-80
1643563206088,12779.8920551,-49
1643563206088,12779.8920579,-28
1643563206088,12779.8920607,-37
1643563206353,12779.8920637,-54
1643563206353,12779.8920667,-59
1643563206353,12779.8920694,-59
1643563206353,12779.8920722,-56
1643563206353,12779.8920753,-59
1643563206353,12779.8920781,-59
1643563206353,12779.892081,-28
1643563206353,12779.8920838,-11
1643563206353,12779.8920866,-52
1643563206353,12779.8920894,-68
1643563206383,12779.8920921,2
1643563206383,12779.8920949,56
1643563206383,12779.8920976,14
1643563206383,12779.8921003,-4
1643563206383,12779.8921031,18
1643563206383,12779.8921061,0
1643563206383,12779.8921088,2
1643563206383,12779.8921116,52
1643563206383,12779.8921143,37
1643563206383,12779.8921171,-26
1643563206416,12779.8921199,-28
1643563206416,12779.8921231,23
1643563206416,12779.8921258,49
1643563206416,12779.8921286,9
1643563206416,12779.8921315,-26
1643563206416,12779.8921345,-16
1643563206416,12779.8921374,-9
1643563206416,12779.8921404,-2
1643563206416,12779.8921431,56
1643563206416,12779.8921459,232
1643563206449,12779.8921487,587
1643563206449,12779.8921516,845
1643563206449,12779.8921543,442
1643563206449,12779.8921571,-520
1643563206449,12779.8921598,-1117
1643563206449,12779.8921628,-826
1643563206449,12780.391249,-246
1643563206449,12780.3912599,-42
1643563206449,12780.3912633,-9
1643563206449,12780.3912665,92
1643563206482,12780.3912694,89
1643563206482,12780.3912723,52
1643563206482,12780.3912759,108
1643563206482,12780.3912788,127
1643563206482,12780.3912817,92
1643563206482,12780.3912845,106
1643563206482,12780.3912875,132
1643563206482,12780.3912916,118
1643563206482,12780.3912945,118
1643563206482,12780.3912979,139
1643563206515,12780.3913013,153
1643563206515,12780.3913042,158
1643563206515,12780.391307,201
1643563206515,12780.3913099,279
1643563206515,12780.3913127,312
1643563206515,12780.3913156,319
1643563206515,12780.3913184,355
1643563206515,12780.3913216,386
1643563206515,12780.3913245,414
1643563206515,12780.3913273,438
1643563206548,12780.3913301,421
1643563206548,12780.391333,390
1643563206548,12780.3913358,352
1643563206548,12780.3913386,272
1643563206548,12780.3913415,170
1643563206548,12780.3913443,68
1643563206548,12780.3913472,-16
1643563206548,12780.39135,-87
1643563206548,12780.3913528,-156
1643563206548,12780.3913556,-203
1643563206581,12780.3913585,-198
1643563206581,12780.3913614,-179
1643563206581,12780.3913642,-198
1643563206581,12780.391367,-220
1643563206948,12780.3913698,-206
1643563206948,12780.3913727,-179
1643563206948,12780.3913755,-177
1643563206948,12780.3913783,-172
1643563206948,12780.3913812,-161
1643563206948,12780.391384,-163
1643563206948,12780.3913869,-158
1643563206948,12780.3913898,-134
1643563206948,12780.3913927,-111
1643563206948,12780.3913955,-101
1643563206983,12780.3913984,-106
1643563206983,12780.3914012,-108
1643563206983,12780.3914041,-92
1643563206983,12780.3914069,-82
1643563206983,12780.3914098,-89
1643563206983,12780.3914126,-94
1643563206983,12780.3914154,-89
1643563206983,12780.3914183,-89
1643563206983,12780.3914211,-94
1643563206983,12780.391424,-97
1643563207014,12780.3914268,-87
1643563207014,12780.3914296,-78
1643563207014,12780.3914323,-75
1643563207014,12780.3914351,-75
1643563207014,12780.391438,-75
1643563207014,12780.3914409,-73
1643563207014,12780.3914436,-68
1643563207014,12780.3914465,-63
1643563207014,12780.3914494,-63
1643563207014,12780.3914522,-61
1643563207050,12780.391455,-59
1643563207050,12780.391458,-59
1643563207050,12780.3914608,-66
1643563207050,12780.3914636,-71
1643563207050,12780.3914664,-63
1643563207050,12780.9911994,-56
1643563207050,12780.9912117,-56
1643563207050,12780.9912154,-56
1643563207050,12780.9912186,-47
1643563207050,12780.9912602,-52
1643563207082,12780.9912737,-80
1643563207082,12780.9912775,-97
1643563207082,12780.9912855,-78
1643563207082,12780.9913053,-49
1643563207082,12780.9913108,-37
1643563207082,12780.9913139,-28
1643563207082,12780.9913169,-2
1643563207082,12780.9913347,16
1643563207082,12780.9913473,-2
1643563207082,12780.9913526,-40
1643563207114,12780.9913555,-54
1643563207114,12780.9913586,-52
1643563207114,12780.9913638,-63
1643563207114,12780.9913668,-71
1643563207114,12780.9913709,-56
1643563207114,12780.9913883,-49
1643563207114,12780.9913928,-49
1643563207114,12780.9913957,-37
1643563207114,12780.9913986,9
1643563207114,12780.9914014,177
1643563207148,12780.9914041,528
1643563207148,12780.9914069,802
1643563207148,12780.9914097,530
1643563207148,12780.9914124,-291
1643563207148,12780.9914153,-999
1643563207148,12780.9914181,-918
1643563207148,12780.9914209,-319
1643563207148,12780.9914237,-30
1643563207148,12780.9914264,-49
1643563207148,12780.9914292,4
1643563207181,12780.991432,52
1643563207181,12780.9914347,30
1643563207181,12780.9914374,44
1643563207181,12780.9914401,73
1643563207613,12780.9914429,78
1643563207613,12780.9914457,82
1643563207613,12780.9914484,94
1643563207613,12780.9914512,113
1643563207613,12780.9914539,132
1643563207613,12780.9914568,149
1643563207613,12780.9914596,168
1643563207613,12780.9914624,196
1643563207613,12780.9914651,227
1643563207613,12780.9914679,258
1643563207647,12780.9914707,293
1643563207647,12780.9914734,331
1643563207647,12780.9914761,367
1643563207647,12780.9914789,397
1643563207647,12780.9914817,419
1643563207647,12780.9914845,431
1643563207647,12780.9914873,435
1643563207647,12780.9914901,426
1643563207647,12780.9914931,397
1643563207647,12780.9914959,343
1643563207683,12780.9914987,258
1643563207683,12780.9915015,161
1643563207683,12780.9915043,59
1643563207683,12780.9915071,-28
1643563207683,12780.9915099,-92
1643563207683,12780.9915128,-137
1643563207683,12780.9915155,-170
1643563207683,12780.9915184,-184
1643563207683,12780.9915212,-187
1643563207683,12780.991524,-184
1643563207714,12780.9915269,-182
1643563207714,12780.9915297,-179
1643563207714,12780.9915325,-170
1643563207714,12780.9915353,-153
1643563207714,12781.6359896,-139
1643563207714,12781.636002,-127
1643563207714,12781.6360053,-116
1643563207714,12781.6360083,-104
1643563207714,12781.6360125,-97
1643563207714,12781.6360155,-85
1643563207747,12781.6360183,-73
1643563207747,12781.6360213,-66
1643563207747,12781.6360243,-59
1643563207747,12781.6360282,-68
1643563207747,12781.6360311,-94
1643563207747,12781.636034,-106
1643563207747,12781.6360369,-89
1643563207747,12781.6360398,-85
1643563207747,12781.6360426,-87
1643563207747,12781.6360455,-85
1643563207781,12781.6360484,-82
1643563207781,12781.6360513,-87
1643563207781,12781.6360541,-82
1643563207781,12781.636057,-73
1643563207781,12781.6360598,-68
1643563207781,12781.6360627,-68
1643563207781,12781.6360656,-61
1643563207781,12781.6360686,-52
1643563207781,12781.6360716,-52
1643563207781,12781.6360765,-52
1643563207814,12781.6360793,-47
1643563207814,12781.6360822,-44
1643563207814,12781.6360852,-44
1643563207814,12781.6360901,-42
1643563207814,12781.636094,-37
1643563207814,12781.6360987,-30
1643563207814,12781.6361029,-26
1643563207814,12781.6361078,-23
1643563207814,12781.6361122,-21
1643563207814,12781.6361161,-18
1643563207848,12781.636119,-21
1643563207848,12781.6361228,-21
1643563207848,12781.6361258,-16
1643563207848,12781.6361297,-9
1643563208148,12781.6361326,-4
1643563208148,12781.6361356,0
1643563208148,12781.6361383,0
1643563208148,12781.6361411,-7
1643563208148,12781.6361438,-7
1643563208148,12781.6361466,7
1643563208148,12781.6361493,16
1643563208148,12781.6361521,26
1643563208148,12781.6361548,52
1643563208148,12781.6361575,66
1643563208181,12781.6361601,47
1643563208181,12781.6361629,11
1643563208181,12781.6361656,-14
1643563208181,12781.6361683,-26
1643563208181,12781.6361709,-33
1643563208181,12781.6361736,-37
1643563208181,12781.6361765,-33
1643563208181,12781.6361794,-35
1643563208181,12781.6361824,-35
1643563208181,12781.6361855,-14
1643563208214,12781.6361896,49
1643563208214,12781.6361926,236
1643563208214,12781.6361955,596
1643563208214,12781.6361995,802
1643563208214,12781.6362024,433
1643563208214,12781.6362053,-381
1643563208214,12781.6362106,-1020
1643563208214,12781.6362134,-885
1643563208214,12781.6362164,-262
1643563208214,12781.6362202,9
1643563208249,12781.6362231,-16
1643563208249,12781.636226,59
1643563208249,12781.6362289,113
1643563208249,12782.190351,85
1643563208249,12782.1903636,97
1643563208249,12782.1903673,125
1643563208249,12782.1903705,120
1643563208249,12782.1903747,130
1643563208249,12782.1903779,156
1643563208249,12782.1903857,170
1643563208283,12782.1903887,182
1643563208283,12782.1903918,187
1643563208283,12782.1903948,182
1643563208283,12782.1903977,213
1643563208283,12782.1904007,267
1643563208283,12782.1904036,300
1643563208283,12782.1904065,336
1643563208283,12782.1904094,390
1643563208283,12782.1904136,433
1643563208283,12782.1904168,459
1643563208316,12782.1904212,485
1643563208316,12782.1904241,504
1643563208316,12782.190427,499
1643563208316,12782.19043,478
1643563208316,12782.1904329,433
1643563208316,12782.1904362,348
1643563208316,12782.1904391,241
1643563208316,12782.190442,130
1643563208316,12782.1904451,21
1643563208316,12782.1904481,-63
1643563208349,12782.190451,-130
1643563208349,12782.1904539,-172
1643563208349,12782.1904568,-189
1643563208349,12782.1904597,-198
1643563208349,12782.1904625,-201
1643563208349,12782.1904655,-196
1643563208349,12782.1904683,-194
1643563208349,12782.1904713,-189
1643563208349,12782.1904744,-177
1643563208349,12782.1904773,-161
1643563208382,12782.1904802,-146
1643563208382,12782.1904834,-132
1643563208382,12782.1904863,-118
1643563208382,12782.1904893,-108
1643563208765,12782.1904922,-97
1643563208765,12782.1904951,-78
1643563208765,12782.190498,-71
1643563208765,12782.1905009,-71
1643563208765,12782.1905038,-68
1643563208765,12782.1905081,-61
1643563208765,12782.190511,-66
1643563208765,12782.1905138,-73
1643563208765,12782.1905167,-71
1643563208765,12782.1905196,-68
1643563208798,12782.1905232,-68
1643563208798,12782.1905261,-63
1643563208798,12782.190529,-66
1643563208798,12782.1905322,-68
1643563208798,12782.1905352,-61
1643563208798,12782.1905381,-56
1643563208798,12782.1905411,-59
1643563208798,12782.1905441,-56
1643563208798,12782.190547,-49
1643563208798,12782.19055,-47
1643563208832,12782.1905528,-47
1643563208832,12782.1905557,-42
1643563208832,12782.1905586,-37
1643563208832,12782.1905615,-35
1643563208832,12782.1905644,-28
1643563208832,12782.1905672,-26
1643563208832,12782.1905701,-30
1643563208832,12782.1905729,-33
1643563208832,12782.1905758,-30
1643563208832,12782.1905787,-23
1643563208865,12782.1905815,-26
1643563208865,12782.1905844,-28
1643563208865,12782.788755,-21
1643563208865,12782.7887674,-21
1643563208865,12782.7887717,-23
1643563208865,12782.7887768,-18
1643563208865,12782.7887799,-18
1643563208865,12782.788783,-28
1643563208865,12782.7887879,-23
1643563208865,12782.7887924,-9
1643563208898,12782.7887974,-4
1643563208898,12782.7888019,11
1643563208898,12782.7888069,44
1643563208898,12782.7888103,54
1643563208898,12782.7888134,26
1643563208898,12782.7888182,-7
1643563208898,12782.788821,-23
1643563208898,12782.7888242,-28
1643563208898,12782.7888291,-30
1643563208898,12782.7888336,-26
1643563208933,12782.7888384,-18
1643563208933,12782.788843,-26
1643563208933,12782.7888478,-44
1643563208933,12782.788852,-35
1643563208933,12782.7888567,59
1643563208933,12782.7888617,305
1643563208933,12782.7888664,658
1643563208933,12782.788871,755
1643563208933,12782.7888757,272
1643563208933,12782.7888802,-568
1643563208965,12782.7888851,-1068
1643563208965,12782.7888909,-734
1643563208965,12782.788896,-134
1643563208965,12782.7888988,7
1643563208965,12782.7889016,-21
1643563208965,12782.7889048,68
1643563208965,12782.7889076,92
1643563208965,12782.7889104,66
1643563208965,12782.7889133,94
1643563208965,12782.7889162,116
1643563209001,12782.7889193,106
1643563209001,12782.7889223,108
1643563209001,12782.7889267,123
1643563209001,12782.7889296,137
1643563209266,12782.7889324,156
1643563209266,12782.7889352,179
1643563209266,12782.788938,206
1643563209266,12782.7889409,234
1643563209266,12782.7889437,267
1643563209266,12782.7889464,303
1643563209266,12782.7889492,345
1643563209266,12782.7889521,388
1643563209266,12782.7889549,426
1643563209266,12782.7889577,457
1643563209298,12782.7889605,476
1643563209298,12782.7889634,480
1643563209298,12782.7889662,478
1643563209298,12782.7889689,457
1643563209298,12782.7889718,402
1643563209298,12782.7889746,324
1643563209298,12782.7889776,227
1643563209298,12782.7889806,118
1643563209298,12782.7889836,18
1643563209298,12782.7889865,-56
1643563209332,12782.7889893,-113
1643563209332,12782.7889921,-146
1643563209332,12782.7889949,-161
1643563209332,12782.7889977,-172
1643563209332,12782.7890005,-179
1643563209332,12782.7890033,-175
1643563209332,12782.7890061,-170
1643563209332,12782.7890089,-163
1643563209332,12782.7890117,-153
1643563209332,12782.7890145,-151
1643563209364,12782.7890173,-144
1643563209364,12783.2852699,-130
1643563209364,12783.2852828,-118
1643563209364,12783.2852865,-104
1643563209364,12783.2852919,-89
1643563209364,12783.2852951,-75
1643563209364,12783.2853002,-71
1643563209364,12783.2853035,-68
1643563209364,12783.2853068,-59
1643563209364,12783.2853118,-59
1643563209399,12783.285315,-59
1643563209399,12783.28532,-52
1643563209399,12783.2853248,-56
1643563209399,12783.2853299,-71
1643563209399,12783.2853348,-82
1643563209399,12783.2853404,-73
1643563209399,12783.2853436,-59
1643563209399,12783.2853487,-59
1643563209399,12783.2853518,-73
1643563209399,12783.2853551,-80
1643563209433,12783.2853602,-85
1643563209433,12783.2853635,-78
1643563209433,12783.2853686,-66
1643563209433,12783.2853719,-68
1643563209433,12783.2853769,-75
1643563209433,12783.2853802,-85
1643563209433,12783.2853852,-99
1643563209433,12783.2853893,-106
1643563209433,12783.2853942,-97
1643563209433,12783.2853975,-89
1643563209467,12783.2854008,-97
1643563209467,12783.2854058,-101
1643563209467,12783.2854104,-99
1643563209467,12783.2854155,-101
1643563209467,12783.2854188,-97
1643563209467,12783.2854238,-87
1643563209467,12783.2854269,-85
1643563209467,12783.2854303,-82
1643563209467,12783.2854354,-78
1643563209467,12783.2854387,-75
1643563209498,12783.285442,-71
1643563209498,12783.2854471,-66
1643563209498,12783.2854521,-63
1643563209498,12783.2854571,-61
1643563209764,12783.2854604,-59
1643563209764,12783.2854636,-54
1643563209764,12783.2854667,-47
1643563209764,12783.2854697,-42
1643563209764,12783.2854727,-40
1643563209764,12783.2854757,-23
1643563209764,12783.2854788,0
1643563209764,12783.2854818,9
1643563209764,12783.2854848,21
1643563209764,12783.2854878,42
1643563209798,12783.2854907,42
1643563209798,12783.2854937,2
1643563209798,12783.2854967,-30
1643563209798,12783.2854997,-33
1643563209798,12783.2855027,-30
1643563209798,12783.2855057,-33
1643563209798,12783.285509,-26
1643563209798,12783.2855143,-16
1643563209798,12783.2855173,-26
1643563209798,12783.2855206,-23
1643563209832,12783.2855258,4
1643563209832,12783.2855297,118
1643563209832,12783.2855349,409
1643563209832,12783.2855382,781
1643563209832,12783.2855435,793
1643563209832,12783.2855468,187
1643563209832,12783.2855519,-670
1643563209832,12783.2855552,-996
1643563209832,12783.2855603,-537
1643563209832,12783.2855638,-52
1643563209863,12783.7908498,4
1643563209863,12783.7908625,14
1643563209863,12783.790866,92
1643563209863,12783.7908691,87
1643563209863,12783.7908743,78
1643563209863,12783.7908772,108
1643563209863,12783.7908803,118
1643563209863,12783.7908832,113
1643563209863,12783.7908861,125
1643563209863,12783.790889,149
1643563209896,12783.7908918,149
1643563209896,12783.7908948,130
1643563209896,12783.7908978,142
1643563209896,12783.7909007,177
1643563209896,12783.7909036,208
1643563209896,12783.7909066,234
1643563209896,12783.7909095,267
1643563209896,12783.7909124,305
1643563209896,12783.7909153,336
1643563209896,12783.7909184,369
1643563209930,12783.7909214,402
1643563209930,12783.7909243,412
1643563209930,12783.7909272,412
1643563209930,12783.7909301,419
1643563209930,12783.790933,402
1643563209930,12783.7909363,350
1643563209930,12783.790941,281
1643563209930,12783.7909459,201
1643563209930,12783.7909499,116
1643563209930,12783.7909528,28
1643563209963,12783.7909558,-54
1643563209963,12783.7909598,-111
1643563209963,12783.7909628,-137
1643563209963,12783.7909658,-158
1643563209963,12783.7909688,-168
1643563209963,12783.7909732,-165
1643563209963,12783.7909768,-170
1643563209963,12783.7909797,-172
1643563209963,12783.7909827,-158
1643563209963,12783.7909857,-142
1643563209997,12783.7909886,-132
1643563209997,12783.7909915,-127
1643563209997,12783.7909944,-123
1643563209997,12783.7909973,-113
1643563210299,12783.7910002,-99
1643563210299,12783.791003,-87
1643563210299,12783.7910058,-80
1643563210299,12783.7910085,-73
1643563210299,12783.7910113,-75
1643563210299,12783.791014,-75
1643563210299,12783.7910167,-75
1643563210299,12783.7910194,-75
1643563210299,12783.7910225,-82
1643563210299,12783.7910252,-89
1643563210332,12783.7910279,-92
1643563210332,12783.7910306,-87
1643563210332,12783.7910334,-85
1643563210332,12783.7910361,-85
1643563210332,12783.7910389,-85
1643563210332,12783.7910416,-78
1643563210332,12783.7910457,-75
1643563210332,12783.7910486,-75
1643563210332,12783.7910516,-75
1643563210332,12783.7910543,-73
1643563210369,12783.791057,-66
1643563210369,12783.7910598,-61
1643563210369,12783.7910628,-61
1643563210369,12783.7910657,-54
1643563210369,12783.7910686,-52
1643563210369,12783.7910715,-54
1643563210369,12783.7910744,-54
1643563210369,12783.7910774,-47
1643563210369,12783.7910804,-47
1643563210369,12784.3419663,-47
1643563210399,12784.3420624,-42
1643563210399,12784.3420721,-37
1643563210399,12784.3420775,-40
1643563210399,12784.3420804,-40
1643563210399,12784.3420833,-37
1643563210399,12784.3420862,-33
1643563210399,12784.3420894,-30
1643563210399,12784.3420925,-40
1643563210399,12784.3420954,-61
1643563210399,12784.3420983,-78
1643563210432,12784.3421011,-71
1643563210432,12784.342104,-66
1643563210432,12784.3421068,-68
1643563210432,12784.3421097,-61
1643563210432,12784.3421125,-59
1643563210432,12784.3421153,-61
1643563210432,12784.3421185,-54
1643563210432,12784.3421214,-52
1643563210432,12784.3421242,-59
1643563210432,12784.342127,-49
1643563210465,12784.3421488,-35
1643563210465,12784.3421535,-40
1643563210465,12784.3421588,-42
1643563210465,12784.3421619,-35
1643563210465,12784.3421668,-18
1643563210465,12784.34217,7
1643563210465,12784.3421748,21
1643563210465,12784.342178,21
1643563210465,12784.3421828,40
1643563210465,12784.342186,59
1643563210498,12784.3421908,35
1643563210498,12784.342194,-4
1643563210498,12784.3421988,-9
1643563210498,12784.3422019,-9
1643563210498,12784.3422068,-26
1643563210498,12784.3422099,-26
1643563210498,12784.3422147,-7
1643563210498,12784.3422178,9
1643563210498,12784.3422226,14
1643563210498,12784.3422259,26
1643563210531,12784.3422307,99
1643563210531,12784.342234,336
1643563210531,12784.3422388,724
1643563210531,12784.342242,847
1643563210898,12784.3422468,317
1643563210898,12784.34225,-565
1643563210898,12784.3422528,-1013
1643563210898,12784.3422557,-658
1643563210898,12784.3422586,-123
1643563210898,12784.3422619,11
1643563210898,12784.3422647,21
1643563210898,12784.3422676,113
1643563210898,12784.3422704,127
1643563210898,12784.3422925,94
1643563210931,12784.3422971,113
1643563210931,12784.3423001,142
1643563210931,12784.3423029,151
1643563210931,12784.3423058,156
1643563210931,12784.3423086,165
1643563210931,12784.3423115,184
1643563210931,12784.3423143,198
1643563210931,12784.3423172,217
1643563210931,12784.34232,248
1643563210931,12784.3423229,272
1643563210965,12784.3423258,288
1643563210965,12784.3423286,326
1643563210965,12784.3423315,378
1643563210965,12784.3423342,419
1643563210965,12784.3423375,449
1643563210965,12784.3423403,480
1643563210965,12784.3423432,499
1643563210965,12784.342346,511
1643563210965,12784.9394243,506
1643563210965,12784.9394369,492
1643563211000,12784.9394403,466
1643563211000,12784.9394435,388
1643563211000,12784.9394477,269
1643563211000,12784.9394526,163
1643563211000,12784.9394556,68
1643563211000,12784.9394606,-35
1643563211000,12784.9394634,-132
1643563211000,12784.9394664,-194
1643563211000,12784.9394694,-222
1643563211000,12784.9394724,-239
1643563211031,12784.9394754,-241
1643563211031,12784.9394785,-236
1643563211031,12784.9394833,-234
1643563211031,12784.9394861,-217
1643563211031,12784.9394891,-196
1643563211031,12784.939493,-194
1643563211031,12784.939496,-184
1643563211031,12784.939499,-158
1643563211031,12784.9395019,-149
1643563211031,12784.9395049,-151
1643563211065,12784.939509,-146
1643563211065,12784.939512,-134
1643563211065,12784.939515,-116
1643563211065,12784.9395189,-101
1643563211065,12784.9395219,-104
1643563211065,12784.9395268,-104
1643563211065,12784.9395296,-99
1643563211065,12784.9395325,-92
1643563211065,12784.9395356,-87
1643563211065,12784.9395396,-97
1643563211098,12784.9395426,-104
1643563211098,12784.9395464,-101
1643563211098,12784.9395514,-85
1643563211098,12784.9395542,-68
1643563211098,12784.9395573,-80
1643563211098,12784.9395623,-85
1643563211098,12784.9395672,-66
1643563211098,12784.9395722,-73
1643563211098,12784.9395751,-89
1643563211098,12784.9395781,-87
1643563211132,12784.9395812,-80
1643563211132,12784.9395842,-59
1643563211132,12784.9395872,-28
1643563211132,12784.9395914,-33
1643563211464,12784.9395944,-59
1643563211464,12784.9395973,-54
1643563211464,12784.9396001,-42
1643563211464,12784.9396029,-59
1643563211464,12784.9396058,-49
1643563211464,12784.9396085,-28
1643563211464,12784.9396113,-37
1643563211464,12784.9396141,-33
1643563211464,12784.9396169,-21
1643563211464,12784.9396196,-33
1643563211498,12784.9396224,-35
1643563211498,12784.9396252,-7
1643563211498,12784.9396281,-2
1643563211498,12784.9396309,-28
1643563211498,12784.9396339,-30
1643563211498,12784.939637,7
1643563211498,12784.93964,30
1643563211498,12784.939643,28
1643563211498,12784.939646,40
1643563211498,12784.9396502,56
1643563211532,12784.9396533,37
1643563211532,12784.9396573,11
1643563211532,12784.9396603,2
1643563211532,12784.9396652,-18
1643563211532,12784.939668,-33
1643563211532,12784.939671,-14
1643563211532,12784.9396761,-9
1643563211532,12785.4909233,-21
1643563211532,12785.4909355,-23
1643563211532,12785.4909393,-16
1643563211568,12785.4909438,14
1643563211568,12785.4909469,137
1643563211568,12785.4909502,445
1643563211568,12785.4909555,850
1643563211568,12785.4909588,871
1643563211568,12785.4909639,156
1643563211568,12785.490967,-776
1643563211568,12785.4909702,-1001
1643563211568,12785.4909753,-535
1643563211568,12785.4909783,-175
1643563211600,12785.4909814,-106
1643563211600,12785.4909865,-33
1643563211600,12785.4909901,35
1643563211600,12785.4909951,23
1643563211600,12785.4909983,18
1643563211600,12785.4910032,49
1643563211600,12785.4910064,68
1643563211600,12785.4910112,75
1643563211600,12785.4910144,92
1643563211600,12785.4910194,108
1643563211632,12785.4910225,120
1643563211632,12785.4910278,137
1643563211632,12785.491031,151
1643563211632,12785.491036,158
1643563211632,12785.4910407,182
1643563211632,12785.4910442,229
1643563211632,12785.4910472,262
1643563211632,12785.4910501,279
1643563211632,12785.4910534,326
1643563211632,12785.4910584,378
1643563211666,12785.4910622,397
1643563211666,12785.4910654,412
1643563211666,12785.4910695,421
1643563211666,12785.4910727,419
1643563211666,12785.4910775,404
1643563211666,12785.4910824,374
1643563211666,12785.4910872,310
1643563211666,12785.4910904,222
1643563211666,12785.4910958,111
1643563211666,12785.4910996,26
1643563211698,12785.4911044,-30
1643563211698,12785.4911074,-99
1643563211698,12785.4911107,-142
1643563211698,12785.4911156,-158
1643563211999,12785.4911204,-191
1643563211999,12785.4911234,-191
1643563211999,12785.4911264,-163
1643563211999,12785.4911293,-172
1643563211999,12785.4911321,-189
1643563211999,12785.491135,-156
1643563211999,12785.4911379,-113
1643563211999,12785.4911408,-113
1643563211999,12785.4911436,-111
1643563211999,12785.4911465,-85
1643563212035,12785.4911493,-85
1643563212035,12785.4911522,-97
1643563212035,12785.4911552,-94
1643563212035,12785.4911584,-78
1643563212035,12785.4911634,-61
1643563212035,12785.4911671,-71
1643563212035,12785.4911703,-73
1643563212035,12785.4911753,-63
1643563212035,12785.4911798,-63
1643563212035,12785.4911846,-71
1643563212066,12785.4911876,-63
1643563212066,12785.4911908,-44
1643563212066,12785.4911957,-42
1643563212066,12785.4911988,-54
1643563212066,12785.4912038,-59
1643563212066,12785.491207,-56
1643563212066,12786.0409642,-54
1643563212066,12786.0409763,-54
1643563212066,12786.04098,-52
1643563212066,12786.0409843,-42
1643563212098,12786.0409874,-40
1643563212098,12786.0409914,-40
1643563212098,12786.0409944,-26
1643563212098,12786.0410115,-16
1643563212098,12786.0410229,-18
1643563212098,12786.0410277,-11
1643563212098,12786.0410309,-14
1643563212098,12786.0410351,-54
1643563212098,12786.0410382,-73
1643563212098,12786.0410421,-47
1643563212132,12786.0410461,-44
1643563212132,12786.0410492,-59
1643563212132,12786.0410548,-44
1643563212132,12786.041058,-28
1643563212132,12786.041062,-28
1643563212132,12786.0410674,-28
1643563212132,12786.0410705,-26
1643563212132,12786.041097,-16
1643563212132,12786.0411042,-4
1643563212132,12786.0411071,-7
1643563212165,12786.04111,-14
1643563212165,12786.041113,-11
1643563212165,12786.041116,2
1643563212165,12786.0411213,28
1643563212165,12786.0411243,52
1643563212165,12786.0411273,54
1643563212165,12786.0411303,52
1643563212165,12786.041133,47
1643563212165,12786.041136,9
1643563212165,12786.041139,-14
1643563212198,12786.0411674,2
1643563212198,12786.041175,0
1643563212198,12786.0411801,-14
1643563212198,12786.0411833,-9
1643563212198,12786.0411863,2
1643563212198,12786.0411894,18
1643563212198,12786.0411925,42
1643563212198,12786.0411979,132
1643563212198,12786.041201,409
1643563212198,12786.0412065,807
1643563212232,12786.0412097,864
1643563212232,12786.0412147,246
1643563212232,12786.041218,-655
1643563212232,12786.041221,-1034
1643563212566,12786.0412242,-641
1643563212566,12786.04123,-149
1643563212566,12786.041233,-33
1643563212566,12786.0412359,9
1643563212566,12786.0412386,99
1643563212566,12786.0412415,85
1643563212566,12786.0412443,63
1643563212566,12786.0412478,101
1643563212566,12786.041251,101
1643563212566,12786.0412538,89
1643563212598,12786.0412566,123
1643563212598,12786.0412595,144
1643563212598,12786.0412623,142
1643563212598,12786.041265,151
1643563212598,12786.0412678,165
1643563212598,12786.0412706,175
1643563212598,12786.0412735,196
1643563212598,12786.0412762,224
1643563212598,12786.041279,258
1643563212598,12786.0412817,300
1643563212633,12786.0412845,331
1643563212633,12786.0412872,348
1643563212633,12786.04129,378
1643563212633,12786.0412927,407
1643563212633,12786.0412955,407
1643563212633,12786.5909361,388
1643563212633,12786.5909485,367
1643563212633,12786.5909534,341
1643563212633,12786.5909588,288
1643563212633,12786.5909619,201
1643563212666,12786.5909649,104
1643563212666,12786.5909681,14
1643563212666,12786.5909724,-68
1643563212666,12786.5909774,-134
1643563212666,12786.5909824,-182
1643563212666,12786.5909872,-234
1643563212666,12786.5909917,-279
1643563212666,12786.5909968,-279
1643563212666,12786.5909999,-258
1643563212666,12786.5910052,-236
1643563212701,12786.5910082,-234
1643563212701,12786.5910114,-239
1643563212701,12786.5910162,-217
1643563212701,12786.5910194,-194
1643563212701,12786.5910236,-184
1643563212701,12786.5910269,-172
1643563212701,12786.5910317,-149
1643563212701,12786.5910349,-137
1643563212701,12786.5910392,-144
1643563212701,12786.5910424,-146
1643563212732,12786.5910464,-134
1643563212732,12786.5910496,-118
1643563212732,12786.5910545,-116
1643563212732,12786.5910574,-113
1643563212732,12786.5910606,-104
1643563212732,12786.5910649,-104
1643563212732,12786.5910681,-99
1643563212732,12786.5910729,-92
1643563212732,12786.591076,-97
1643563212732,12786.591081,-99
1643563212769,12786.591084,-92
1643563212769,12786.5910891,-89
1643563212769,12786.5910936,-85
1643563212769,12786.5910987,-80
1643563212769,12786.5911019,-75
1643563212769,12786.5911069,-73
1643563212769,12786.5911101,-68
1643563212769,12786.591115,-71
1643563212769,12786.591118,-87
1643563212769,12786.591123,-82
1643563212800,12786.5911268,-54
1643563212800,12786.5911315,-52
1643563212800,12786.5911345,-54
1643563212800,12786.5911376,-42
1643563213098,12786.5911425,-49
1643563213098,12786.5911462,-59
1643563213098,12786.5911491,-47
1643563213098,12786.5911522,-37
1643563213098,12786.5911551,-37
1643563213098,12786.591158,-40
1643563213098,12786.5911609,-44
1643563213098,12786.5911638,-54
1643563213098,12786.5911667,-44
1643563213098,12786.5911696,-30
1643563213131,12786.5911725,-23
1643563213131,12786.5911754,-16
1643563213131,12786.5911783,-16
1643563213131,12786.5911812,-28
1643563213131,12786.5911842,-16
1643563213131,12786.5911874,26
1643563213131,12786.5911929,44
1643563213131,12786.5911964,40
1643563213131,12786.5912012,44
1643563213131,12786.5912042,40
1643563213164,12786.5912074,7
1643563213164,12786.5912113,-21
1643563213164,12786.5912144,-23
1643563213164,12786.5912193,-23
1643563213164,12787.1412357,-30
1643563213164,12787.1412486,-30
1643563213164,12787.1412537,-26
1643563213164,12787.1412588,-26
1643563213164,12787.1412618,-11
1643563213164,12787.141265,56
1643563213199,12787.14127,239
1643563213199,12787.1412729,573
1643563213199,12787.141276,854
1643563213199,12787.1412801,646
1643563213199,12787.1412832,-132
1643563213199,12787.141288,-876
1643563213199,12787.1412929,-892
1643563213199,12787.1412978,-362
1643563213199,12787.1413026,-59
1643563213199,12787.1413074,-52
1643563213232,12787.141312,4
1643563213232,12787.1413168,61
1643563213232,12787.1413216,44
1643563213232,12787.1413269,54
1643563213232,12787.14133,80
1643563213232,12787.1413341,85
1643563213232,12787.1413371,94
1643563213232,12787.1413411,106
1643563213232,12787.1413441,116
1643563213232,12787.1413481,134
1643563213264,12787.1413512,161
1643563213264,12787.141356,175
1643563213264,12787.1413608,191
1643563213264,12787.1413656,215
1643563213264,12787.1413684,239
1643563213264,12787.1413715,272
1643563213264,12787.1413755,314
1643563213264,12787.1413786,348
1643563213264,12787.1413827,371
1643563213264,12787.1413857,400
1643563213298,12787.1413887,431
1643563213298,12787.1413935,447
1643563213298,12787.1413963,440
1643563213298,12787.1413995,414
1643563213298,12787.1414047,369
1643563213298,12787.1414077,291
1643563213298,12787.1414106,196
1643563213298,12787.1414136,97
1643563213298,12787.1414167,9
1643563213298,12787.1414218,-52
1643563213332,12787.1414263,-104
1643563213332,12787.1414311,-156
1643563213332,12787.1414353,-182
1643563213332,12787.1414401,-179
1643563213664,12787.1414445,-187
1643563213664,12787.1414475,-194
1643563213664,12787.1414503,-179
1643563213664,12787.1414531,-170
1643563213664,12787.1414559,-170
1643563213664,12787.1414587,-153
1643563213664,12787.1414615,-137
1643563213664,12787.1414642,-127
1643563213664,12787.141467,-118
1643563213664,12787.1414697,-106
1643563213699,12787.1414728,-94
1643563213699,12787.1414756,-82
1643563213699,12787.1414783,-82
1643563213699,12787.1414811,-87
1643563213699,12787.1414838,-80
1643563213699,12787.1414866,-80
1643563213699,12787.1414906,-89
1643563213699,12787.1414936,-94
1643563213699,12787.1414966,-87
1643563213699,12787.1415009,-78
1643563213733,12787.1415039,-75
1643563213733,12787.1415081,-66
1643563213733,12787.1415111,-63
1643563213733,12787.6909985,-71
1643563213733,12787.6910095,-73
1643563213733,12787.691073,-61
1643563213733,12787.6910807,-49
1643563213733,12787.6910886,-52
1643563213733,12787.6911267,-68
1643563213733,12787.6911337,-85
1643563213765,12787.6911372,-94
1643563213765,12787.691142,-85
1643563213765,12787.6911454,-78
1643563213765,12787.6911485,-78
1643563213765,12787.6911524,-68
1643563213765,12787.6911561,-61
1643563213765,12787.6911608,-68
1643563213765,12787.691164,-63
1643563213765,12787.6911689,-56
1643563213765,12787.6911736,-54
1643563213799,12787.6911784,-47
1643563213799,12787.691183,-44
1643563213799,12787.6911881,-47
1643563213799,12787.6911911,-35
1643563213799,12787.6911942,-26
1643563213799,12787.6911991,-37
1643563213799,12787.6912035,-47
1643563213799,12787.6912085,-18
1643563213799,12787.6912132,4
1643563213799,12787.691218,9
1643563213834,12787.6912226,35
1643563213834,12787.6912275,59
1643563213834,12787.6912316,30
1643563213834,12787.6912365,-9
1643563213834,12787.6912404,-21
1643563213834,12787.6912443,-26
1643563213834,12787.6912473,-33
1643563213834,12787.6912501,-21
1643563213834,12787.6912531,-7
1643563213834,12787.691256,-11
1643563213869,12787.6912591,-14
1643563213869,12787.6912635,9
1643563213869,12787.6912664,94
1643563213869,12787.6912693,331
1643563213869,12787.6912723,691
1643563213869,12787.6912763,800
1643563213869,12787.6912793,314
1643563213869,12787.6912844,-530
1643563213869,12787.6912874,-1049
1643563213869,12787.6912905,-764
1643563213898,12787.6912953,-179
1643563213898,12787.6912999,9
1643563213898,12787.6913046,-2
1643563213898,12787.6913075,75
1643563214265,12787.6913106,111
1643563214265,12787.6913135,82
1643563214265,12787.6913163,97
1643563214265,12787.6913191,116
1643563214265,12787.6913219,111
1643563214265,12787.6913246,120
1643563214265,12787.6913274,142
1643563214265,12787.6913302,156
1643563214265,12787.6913329,163
1643563214265,12787.6913357,187
1643563214298,12787.6913385,217
1643563214298,12787.6913412,243
1643563214298,12787.691344,274
1643563214298,12787.6913467,312
1643563214298,12787.6913495,350
1643563214298,12787.6913523,390
1643563214298,12787.6913551,428
1643563214298,12787.6913579,464
1643563214298,12787.6913607,490
1643563214298,12787.6913635,502
1643563214332,12787.6913663,497
1643563214332,12787.6913691,478
1643563214332,12788.2907964,435
1643563214332,12788.2908073,357
1643563214332,12788.2908118,253
1643563214332,12788.290815,139
1643563214332,12788.290818,26
1643563214332,12788.2908211,-85
1643563214332,12788.290824,-168
1643563214332,12788.2908269,-196
1643563214365,12788.2908299,-213
1643563214365,12788.2908328,-234
1643563214365,12788.2908357,-234
1643563214365,12788.2908385,-224
1643563214365,12788.2908414,-220
1643563214365,12788.2908443,-213
1643563214365,12788.2908472,-198
1643563214365,12788.29085,-187
1643563214365,12788.2908529,-177
1643563214365,12788.2908558,-165
1643563214398,12788.2908586,-156
1643563214398,12788.2908616,-144
1643563214398,12788.2908649,-132
1643563214398,12788.2908677,-130
1643563214398,12788.2908706,-123
1643563214398,12788.2908735,-113
1643563214398,12788.2908763,-111
1643563214398,12788.2908792,-116
1643563214398,12788.290882,-108
1643563214398,12788.2908849,-108
1643563214432,12788.2908878,-120
1643563214432,12788.2908906,-116
1643563214432,12788.2908947,-104
1643563214432,12788.2908981,-106
1643563214432,12788.2909012,-118
1643563214432,12788.2909043,-123
1643563214432,12788.2909075,-118
1643563214432,12788.2909138,-111
1643563214432,12788.2909168,-108
1643563214432,12788.2909198,-106
1643563214466,12788.2909227,-99
1643563214466,12788.2909255,-94
1643563214466,12788.2909283,-94
1643563214466,12788.2909311,-92
1643563214466,12788.2909341,-80
1643563214466,12788.290938,-75
1643563214466,12788.290941,-75
1643563214466,12788.2909439,-80
1643563214466,12788.2909471,-80
1643563214466,12788.2909502,-68
1643563214498,12788.2909534,-61
1643563214498,12788.2909565,-59
1643563214498,12788.2909595,-54
1643563214498,12788.2909625,-56
1643563214868,12788.2909656,-61
1643563214868,12788.2909686,-40
1643563214868,12788.2909714,-14
1643563214868,12788.2909743,-2
1643563214868,12788.2909773,21
1643563214868,12788.2909801,42
1643563214868,12788.290983,28
1643563214868,12788.2909858,-7
1643563214868,12788.2909887,-30
1643563214868,12788.2909915,-33
1643563214899,12788.2909944,-26
1643563214899,12788.2909972,-28
1643563214899,12788.291,-33
1643563214899,12788.2910029,-30
1643563214899,12788.2910057,-16
1643563214899,12788.2910086,0
1643563214899,12788.2910115,40
1643563214899,12788.2910143,203
1643563214899,12788.2910173,554
1643563214899,12788.2910201,850
1643563214935,12788.2910229,618
1643563214935,12788.890541,-165
1643563214935,12788.8905542,-885
1643563214935,12788.890558,-878
1643563214935,12788.8905635,-322
1643563214935,12788.8905668,-9
1643563214935,12788.8905724,-11
1643563214935,12788.8905761,42
1643563214935,12788.8905813,97
1643563214935,12788.8905846,71
1643563214966,12788.8905897,63
1643563214966,12788.8905929,66
1643563214966,12788.8905983,56
1643563214966,12788.8906015,71
1643563214966,12788.8906066,89
1643563214966,12788.8906099,99
1643563214966,12788.890615,116
1643563214966,12788.8906182,139
1643563214966,12788.8906231,156
1643563214966,12788.8906264,179
1643563214999,12788.8906314,213
1643563214999,12788.8906347,246
1643563214999,12788.8906397,279
1643563214999,12788.890643,317
1643563214999,12788.8906479,350
1643563214999,12788.8906511,378
1643563214999,12788.8906561,400
1643563214999,12788.8906594,414
1643563214999,12788.8906643,416
1643563214999,12788.8906675,409
1643563215033,12788.8906725,388
1643563215033,12788.8906757,333
1643563215033,12788.8906806,255
1643563215033,12788.890684,161
1643563215033,12788.890689,61
1643563215033,12788.8906922,-21
1643563215033,12788.8906975,-82
1643563215033,12788.8907008,-130
1643563215033,12788.8907057,-158
1643563215033,12788.8907209,-168
1643563215067,12788.8907261,-172
1643563215067,12788.8907291,-170
1643563215067,12788.8907324,-163
1643563215067,12788.8907376,-156
1643563215067,12788.8907408,-144
1643563215067,12788.8907458,-137
1643563215067,12788.8907491,-130
1643563215067,12788.8907541,-116
1643563215067,12788.8907573,-99
1643563215067,12788.8907622,-94
1643563215098,12788.8907654,-89
1643563215098,12788.8907703,-75
1643563215098,12788.8907737,-61
1643563215098,12788.8907788,-61
1643563215365,12788.8907821,-71
1643563215365,12788.8907852,-78
1643563215365,12788.8907881,-68
1643563215365,12788.8907912,-59
1643563215365,12788.8907941,-63
1643563215365,12788.890797,-63
1643563215365,12788.8907999,-54
1643563215365,12788.8908029,-54
1643563215365,12788.8908058,-66
1643563215365,12788.8908087,-73
1643563215397,12788.8908117,-71
1643563215397,12788.8908146,-66
1643563215397,12788.8908175,-68
1643563215397,12788.8908205,-68
1643563215397,12788.8908234,-63
1643563215397,12788.8908263,-59
1643563215397,12788.8908292,-61
1643563215397,12788.8908322,-59
1643563215397,12788.8908351,-54
1643563215397,12788.890838,-56
1643563215432,12789.390954,-56
1643563215432,12789.3909667,-52
1643563215432,12789.3909702,-47
1643563215432,12789.3909753,-47
1643563215432,12789.3909782,-40
1643563215432,12789.3909813,-35
1643563215432,12789.3909843,-30
1643563215432,12789.3909874,-30
1643563215432,12789.3909903,-44
1643563215432,12789.3909933,-47
1643563215465,12789.3909964,-23
1643563215465,12789.3909994,2
1643563215465,12789.3910023,11
1643563215465,12789.3910053,23
1643563215465,12789.3910083,33
1643563215465,12789.3910113,2
1643563215465,12789.3910143,-47
1643563215465,12789.3910174,-73
1643563215465,12789.3910214,-87
1643563215465,12789.3910245,-94
1643563215499,12789.3910275,-87
1643563215499,12789.3910305,-78
1643563215499,12789.3910335,-71
1643563215499,12789.3910365,-63
1643563215499,12789.3910395,-52
1643563215499,12789.3910425,-18
1643563215499,12789.3910459,118
1643563215499,12789.3910506,442
1643563215499,12789.3910535,779
1643563215499,12789.3910565,689
1643563215532,12789.3910596,-11
1643563215532,12789.3910627,-821
1643563215532,12789.3910657,-973
1643563215532,12789.3910688,-447
1643563215532,12789.3910721,-52
1643563215532,12789.3910768,-35
1643563215532,12789.3910796,-4
1643563215532,12789.3910828,63
1643563215532,12789.391087,52
1643563215532,12789.39109,54
1643563215565,12789.391093,82
1643563215565,12789.3910961,87
1643563215565,12789.3910991,94
1643563215565,12789.3911021,113
1643563215565,12789.3911051,127
1643563215565,12789.3911081,139
1643563215565,12789.391111,158
1643563215565,12789.391114,182
1643563215565,12789.391117,201
1643563215565,12789.39112,222
1643563215598,12789.391123,253
1643563215598,12789.391126,286
1643563215598,12789.3911291,324
1643563215598,12789.3911321,367
1643563215980,12789.3911352,393
1643563215980,12789.3911381,414
1643563215980,12789.3911409,435
1643563215980,12789.3911437,445
1643563215980,12789.3911465,440
1643563215980,12789.3911493,419
1643563215980,12789.391152,374
1643563215980,12789.3911548,300
1643563215980,12789.3911576,210
1643563215980,12789.3911604,123
1643563216012,12789.3911632,42
1643563216012,12789.391166,-26
1643563216012,12789.3911687,-80
1643563216012,12789.3911717,-116
1643563216012,12789.3911747,-137
1643563216012,12789.3911777,-144
1643563216012,12789.3911807,-139
1643563216012,12789.3911836,-132
1643563216012,12789.3911866,-125
1643563216012,12789.9909872,-120
1643563216046,12789.9910006,-113
1643563216046,12789.9910043,-99
1643563216046,12789.9910098,-89
1643563216046,12789.9910131,-82
1643563216046,12789.9910163,-71
1643563216046,12789.9910193,-71
1643563216046,12789.9910223,-97
1643563216046,12789.9910253,-111
1643563216046,12789.9910282,-99
1643563216046,12789.9910314,-97
1643563216082,12789.9910369,-104
1643563216082,12789.9910401,-92
1643563216082,12789.9910454,-82
1643563216082,12789.9910488,-87
1643563216082,12789.9910537,-94
1643563216082,12789.9910567,-89
1643563216082,12789.9910599,-80
1643563216082,12789.991065,-80
1643563216082,12789.9910688,-87
1643563216082,12789.9910738,-89
1643563216116,12789.9910769,-80
1643563216116,12789.9910819,-68
1643563216116,12789.991085,-68
1643563216116,12789.9910901,-73
1643563216116,12789.9910933,-71
1643563216116,12789.9910974,-66
1643563216116,12789.9911006,-66
1643563216116,12789.9911056,-63
1643563216116,12789.9911086,-56
1643563216116,12789.9911119,-49
1643563216149,12789.9911171,-47
1643563216149,12789.9911204,-47
1643563216149,12789.9911237,-47
1643563216149,12789.9911288,-37
1643563216149,12789.991132,-30
1643563216149,12789.9911369,-28
1643563216149,12789.9911401,-30
1643563216149,12789.9911451,-28
1643563216149,12789.9911487,-23
1643563216149,12789.9911519,-16
1643563216181,12789.991157,-14
1643563216181,12789.99116,-16
1643563216181,12789.9911632,-7
1643563216181,12789.9911684,18
1643563216181,12789.9911735,28
1643563216181,12789.9911779,42
1643563216181,12789.991181,78
1643563216181,12789.9911842,82
1643563216181,12789.9911897,40
1643563216181,12789.991193,2
1643563216214,12789.9911981,-7
1643563216214,12789.9912014,-7
1643563216214,12789.9912065,-7
1643563216214,12789.9912099,-7
1643563216515,12789.991215,-2
1643563216515,12789.991218,2
1643563216515,12789.991221,11
1643563216515,12789.991224,37
1643563216515,12789.9912269,130
1643563216515,12789.9912298,402
1643563216515,12789.9912328,790
1643563216515,12789.9912357,835
1643563216515,12789.9912386,206
1643563216515,12789.9912416,-679
1643563216546,12789.9912445,-999
1643563216546,12789.9912475,-542
1643563216546,12789.9912507,-54
1643563216546,12789.9912537,26
1643563216546,12789.9912567,40
1643563216546,12789.9912597,118
1643563216546,12789.991263,120
1643563216546,12789.9912671,99
1643563216546,12790.5409764,123
1643563216546,12790.5409884,139
1643563216580,12790.5409932,137
1643563216580,12790.540998,144
1643563216580,12790.541001,153
1643563216580,12790.5410039,161
1643563216580,12790.5410069,175
1643563216580,12790.5410099,196
1643563216580,12790.5410142,222
1643563216580,12790.5410172,253
1643563216580,12790.5410202,279
1643563216580,12790.5410241,303
1643563216612,12790.5410271,324
1643563216612,12790.5410318,350
1643563216612,12790.5410347,393
1643563216612,12790.5410377,435
1643563216612,12790.5410406,459
1643563216612,12790.5410437,468
1643563216612,12790.5410466,461
1643563216612,12790.5410496,440
1643563216612,12790.5410526,402
1643563216612,12790.5410565,326
1643563216648,12790.5410595,220
1643563216648,12790.5410625,108
1643563216648,12790.5410667,14
1643563216648,12790.5410697,-73
1643563216648,12790.5410747,-137
1643563216648,12790.5410777,-172
1643563216648,12790.5410807,-182
1643563216648,12790.5410837,-191
1643563216648,12790.5410871,-198
1643563216648,12790.5410918,-191
1643563216682,12790.5410947,-175
1643563216682,12790.5410977,-161
1643563216682,12790.5411006,-144
1643563216682,12790.5411036,-132
1643563216682,12790.5411066,-125
1643563216682,12790.5411104,-116
1643563216682,12790.5411134,-106
1643563216682,12790.5411174,-94
1643563216682,12790.5411223,-87
1643563216682,12790.5411269,-85
1643563216715,12790.5411308,-87
1643563216715,12790.541134,-82
1643563216715,12790.5411387,-75
1643563216715,12790.5411431,-73
1643563216715,12790.541148,-68
1643563216715,12790.5411524,-66
1643563216715,12790.5411574,-68
1643563216715,12790.5411605,-66
1643563216715,12790.5411654,-63
1643563216715,12790.5411682,-66
1643563216748,12790.5411716,-68
1643563216748,12790.5411767,-66
1643563216748,12790.5411798,-63
1643563216748,12790.5411853,-59
1643563217064,12790.5411893,-59
1643563217064,12790.5411922,-61
1643563217064,12790.541195,-59
1643563217064,12790.5411977,-59
1643563217064,12790.5412005,-56
1643563217064,12790.5412032,-52
1643563217064,12790.541206,-54
1643563217064,12790.5412088,-63
1643563217064,12790.5412116,-63
1643563217064,12790.5412144,-59
1643563217095,12790.5412171,-61
1643563217095,12790.5412199,-59
1643563217095,12790.5412226,-59
1643563217095,12790.5412254,-63
1643563217095,12790.5412281,-71
1643563217095,12790.5412308,-75
1643563217095,12790.5412335,-71
1643563217095,12791.0944168,-52
1643563217095,12791.0944285,-40
1643563217095,12791.0944323,-21
1643563217123,12791.0944402,14
1643563217123,12791.0944434,26
1643563217123,12791.0944485,-2
1643563217123,12791.0944517,-35
1643563217123,12791.0944566,-42
1643563217123,12791.0944599,-44
1643563217123,12791.0944652,-52
1643563217123,12791.0944685,-63
1643563217123,12791.0944734,-82
1643563217123,12791.094477,-82
1643563217150,12791.0944819,-61
1643563217150,12791.0944851,-37
1643563217150,12791.09449,47
1643563217150,12791.0944932,298
1643563217150,12791.0944982,698
1643563217150,12791.0945014,824
1643563217150,12791.0945063,267
1643563217150,12791.0945095,-646
1643563217150,12791.0945143,-1051
1643563217150,12791.0945176,-644
1643563217179,12791.0945224,-134
1643563217179,12791.0945256,-35
1643563217179,12791.0945304,-28
1643563217179,12791.0945336,61
1643563217179,12791.0945385,73
1643563217179,12791.0945416,54
1643563217179,12791.094547,80
1643563217179,12791.0945511,94
1643563217179,12791.0945561,89
1643563217179,12791.0945593,101
1643563217207,12791.0945642,118
1643563217207,12791.0945673,130
1643563217207,12791.0945721,146
1643563217207,12791.0945753,168
1643563217207,12791.0945802,194
1643563217207,12791.0945834,224
1643563217207,12791.0945883,258
1643563217207,12791.0945915,296
1643563217207,12791.0945964,338
1643563217207,12791.0945996,378
1643563217231,12791.0946043,419
1643563217231,12791.0946074,449
1643563217231,12791.0946127,466
1643563217231,12791.0946159,473
1643563217231,12791.0946208,473
1643563217231,12791.094624,457
1643563217231,12791.0946288,409
1643563217231,12791.094632,329
1643563217231,12791.0946368,229
1643563217231,12791.09464,123
1643563217266,12791.0946449,26
1643563217266,12791.0946481,-47
1643563217266,12791.0946531,-101
1643563217266,12791.0946562,-142
1643563217765,12791.0946612,-158
1643563217765,12791.0946642,-158
1643563217765,12791.0946671,-163
1643563217765,12791.09467,-168
1643563217765,12791.0946728,-165
1643563217765,12791.0946756,-158
1643563217765,12791.0946785,-151
1643563217765,12791.0946813,-144
1643563217765,12791.0946841,-139
1643563217765,12791.094687,-127
1643563217797,12791.0946898,-111
1643563217797,12791.0946933,-106
1643563217797,12791.0946961,-104
1643563217797,12791.0946992,-89
1643563217797,12791.0947021,-85
1643563217797,12791.0947049,-87
1643563217797,12791.7852913,-80
1643563217797,12791.7853038,-71
1643563217797,12791.7853075,-73
1643563217797,12791.7853126,-80
1643563217831,12791.7853165,-73
1643563217831,12791.7853214,-68
1643563217831,12791.7853262,-73
1643563217831,12791.7853312,-73
1643563217831,12791.7853343,-73
1643563217831,12791.7853386,-92
1643563217831,12791.7853417,-116
1643563217831,12791.7853465,-108
1643563217831,12791.785351,-97
1643563217831,12791.7853559,-94
1643563217864,12791.785359,-85
1643563217864,12791.7853639,-80
1643563217864,12791.7853687,-89
1643563217864,12791.7853735,-87
1643563217864,12791.7853765,-75
1643563217864,12791.7853795,-75
1643563217864,12791.7853848,-68
1643563217864,12791.7853896,-59
1643563217864,12791.7853944,-66
1643563217864,12791.7853989,-78
1643563217898,12791.7854037,-68
1643563217898,12791.7854083,-61
1643563217898,12791.7854131,-73
1643563217898,12791.7854174,-78
1643563217898,12791.7854226,-66
1643563217898,12791.7854258,-61
1643563217898,12791.7854298,-59
1643563217898,12791.7854493,-52
1643563217898,12791.7854528,-47
1643563217898,12791.7854558,-47
1643563217932,12791.785459,-44
1643563217932,12791.7854642,-42
1643563217932,12791.7854674,-42
1643563217932,12791.7854711,-35
1643563217932,12791.7854761,-7
1643563217932,12791.7854794,21
1643563217932,12791.7854843,28
1643563217932,12791.7854876,37
1643563217932,12791.7854923,54
1643563217932,12791.7854952,40
1643563217965,12791.7854984,-2
1643563217965,12791.7855034,-26
1643563217965,12791.7855079,-23
1643563217965,12791.7855132,-28
1643563217965,12791.7855162,-35
1643563217965,12791.7855215,-23
1643563217965,12791.7855258,-14
1643563217965,12791.785531,-11
1643563217965,12791.7855345,-4
1643563217965,12791.7855394,37
1643563217999,12791.7855431,184
1643563217999,12791.7855485,504
1643563217999,12791.7855539,835
1643563217999,12791.7855593,700
1643563218299,12791.7855648,-92
1643563218299,12791.7855679,-897
1643563218299,12791.7855715,-928
1643563218299,12791.7855747,-386
1643563218299,12791.7855775,-59
1643563218299,12791.7855809,-30
1643563218299,12791.7855845,30
1643563218299,12791.785588,89
1643563218299,12791.785592,71
1643563218299,12791.7855958,73
1643563218332,12791.7855997,101
1643563218332,12791.7856036,106
1643563218332,12791.7856072,108
1643563218332,12791.78561,125
1643563218332,12791.785613,142
1643563218332,12792.3370458,151
1643563218332,12792.3370586,165
1643563218332,12792.3370624,184
1643563218332,12792.3370686,203
1643563218332,12792.3370722,227
1643563218364,12792.3370776,260
1643563218364,12792.3370811,296
1643563218364,12792.3370862,322
1643563218364,12792.3370896,348
1643563218364,12792.3370947,378
1643563218364,12792.3370981,407
1643563218364,12792.3371032,426
1643563218364,12792.3371065,445
1643563218364,12792.3371116,445
1643563218364,12792.3371149,419
1643563218397,12792.33712,374
1643563218397,12792.3371234,310
1643563218397,12792.3371285,229
1643563218397,12792.3371319,142
1643563218397,12792.3371371,56
1643563218397,12792.3371405,-40
1643563218397,12792.3371458,-118
1643563218397,12792.3371492,-149
1643563218397,12792.3371542,-156
1643563218397,12792.3371575,-170
1643563218431,12792.3371626,-172
1643563218431,12792.3371659,-161
1643563218431,12792.337171,-153
1643563218431,12792.3371744,-146
1643563218431,12792.3371806,-139
1643563218431,12792.3371839,-127
1643563218431,12792.3371889,-111
1643563218431,12792.3371922,-101
1643563218431,12792.3371972,-99
1643563218431,12792.3372006,-92
1643563218464,12792.3372061,-85
1643563218464,12792.3372095,-85
1643563218464,12792.3372148,-75
1643563218464,12792.3372182,-66
1643563218464,12792.3372232,-66
1643563218464,12792.3372266,-68
1643563218464,12792.3372317,-68
1643563218464,12792.3372351,-66
1643563218464,12792.3372401,-66
1643563218464,12792.3372435,-63
1643563218498,12792.3372479,-66
1643563218498,12792.337251,-78
1643563218498,12792.337254,-89
1643563218498,12792.3372571,-87
1643563218498,12792.33726,-78
1643563218498,12792.337263,-75
1643563218498,12792.3372661,-71
1643563218498,12792.3372964,-68
1643563218498,12792.337301,-71
1643563218498,12792.3373042,-73
1643563218530,12792.3373072,-75
1643563218530,12792.3373102,-73
1643563218530,12792.3373132,-61
1643563218530,12792.3373162,-56
1643563218862,12792.3373191,-56
1643563218862,12792.3373222,-56
1643563218862,12792.3373252,-54
1643563218862,12792.3373356,-47
1643563218862,12792.3373394,-37
1643563218862,12792.3373425,-35
1643563218862,12792.3373455,-37
1643563218862,12792.3373485,-40
1643563218862,12792.3373515,-35
1643563218862,12792.3373545,-30
1643563218896,12792.3373575,-30
1643563218896,12792.3373605,-21
1643563218896,12792.3373881,-14
1643563218896,12792.3374002,-21
1643563218896,12792.8861342,-18
1643563218896,12792.8861471,-9
1643563218896,12792.8861512,-9
1643563218896,12792.8861563,-14
