unixTime,lslTime,ECG
1643460776922,14962.2207824,148
1643460776922,14962.2207868,122
1643460776922,14962.2207899,89
1643460776922,14962.220795,61
1643460776922,14962.2207996,33
1643460776922,14962.2208044,4
1643460776922,14962.2208092,-11
1643460776922,14962.2208139,-21
1643460776922,14962.2208186,-28
1643460776922,14962.2208234,-33
1643460776952,14962.2208264,-30
1643460776952,14962.2208296,-28
1643460776952,14962.2208337,-28
1643460776952,14962.2208368,-23
1643460776952,14962.2208416,-21
1643460776952,14962.7723334,-21
1643460776952,14962.7723464,-14
1643460776952,14962.7723498,-7
1643460776952,14962.7723529,0
1643460776952,14962.7723569,2
1643460776981,14962.7723601,0
1643460776981,14962.7723648,-7
1643460776981,14962.7723676,-7
1643460776981,14962.7723705,-4
1643460776981,14962.7723733,-2
1643460776981,14962.7723762,0
1643460776981,14962.7723791,-2
1643460776981,14962.7723821,-28
1643460776981,14962.7723862,-44
1643460776981,14962.7723892,-28
1643460777015,14962.7723938,-33
1643460777015,14962.7723966,-52
1643460777015,14962.7723996,-37
1643460777015,14962.7724025,-33
1643460777458,14962.7724054,-42
1643460777458,14962.7724082,-30
1643460777458,14962.7724109,-21
1643460777458,14962.7724136,-23
1643460777458,14962.7724164,-23
1643460777458,14962.7724192,-18
1643460777458,14962.7724219,-7
1643460777458,14962.7724246,4
1643460777458,14962.7724273,14
1643460777458,14962.77243,21
1643460777484,14962.7724327,11
1643460777484,14962.7724457,-7
1643460777484,14962.7724506,-2
1643460777484,14962.7724538,4
1643460777484,14962.7724569,-2
1643460777484,14962.7724598,4
1643460777484,14962.7724626,18
1643460777484,14962.7724655,14
1643460777484,14962.7724683,4
1643460777484,14962.7724712,-28
1643460777517,14962.7724741,-89
1643460777517,14962.772477,-75
1643460777517,14962.7724798,156
1643460777517,14962.7724826,513
1643460777517,14962.7724855,735
1643460777517,14962.7724882,550
1643460777517,14962.7724911,49
1643460777517,14962.7724939,-163
1643460777517,14962.7724967,-11
1643460777517,14962.7724995,11
1643460777551,14962.7725023,-56
1643460777551,14962.7725051,-23
1643460777551,14962.772508,0
1643460777551,14962.7725108,-18
1643460777551,14962.7725137,-7
1643460777551,14962.7725165,7
1643460777551,14962.7725193,7
1643460777551,14962.7725221,14
1643460777551,14962.7725249,21
1643460777551,14962.7725278,16
1643460777584,14962.7725306,21
1643460777584,14962.7725334,30
1643460777584,14962.7725362,33
1643460777584,14962.772539,33
1643460777584,14962.7725418,44
1643460777584,14962.7725447,56
1643460777584,14962.7725629,61
1643460777584,14962.7725658,68
1643460777584,14962.7725687,80
1643460777584,14962.7725716,94
1643460777618,14962.7725745,101
1643460777618,14962.7725773,111
1643460777618,14962.7725801,132
1643460777618,14962.772583,146
1643460777618,14963.4190336,151
1643460777618,14963.4190465,153
1643460777618,14963.4190511,158
1643460777618,14963.4190563,160
1643460777618,14963.41906,153
1643460777618,14963.4190666,132
1643460777651,14963.4190716,104
1643460777651,14963.4190747,78
1643460777651,14963.4190789,54
1643460777651,14963.4190829,26
1643460777651,14963.4190861,-4
1643460777651,14963.419091,-40
1643460777651,14963.4190941,-59
1643460777651,14963.419098,-59
1643460777651,14963.4191011,-54
1643460777651,14963.4191049,-49
1643460777684,14963.4191083,-42
1643460777684,14963.4191132,-44
1643460777684,14963.4191161,-49
1643460777684,14963.4191191,-33
1643460777983,14963.4191222,-21
1643460777983,14963.4191251,-23
1643460777983,14963.419128,-21
1643460777983,14963.4191308,-14
1643460777983,14963.4191336,-9
1643460777983,14963.4191365,-7
1643460777983,14963.4191394,-7
1643460777983,14963.4191423,-9
1643460777983,14963.4191451,-9
1643460777983,14963.419148,-7
1643460778017,14963.419151,-7
1643460778017,14963.4191538,-7
1643460778017,14963.4191566,-9
1643460778017,14963.4191594,-11
1643460778017,14963.4191622,-11
1643460778017,14963.419165,-11
1643460778017,14963.4191678,-16
1643460778017,14963.4191705,-21
1643460778017,14963.4191737,-14
1643460778017,14963.4191765,-4
1643460778050,14963.4191793,-7
1643460778050,14963.4191822,-7
1643460778050,14963.419185,-2
1643460778050,14963.4191888,0
1643460778050,14963.4191929,0
1643460778050,14963.419196,2
1643460778050,14963.4191998,7
1643460778050,14963.4192029,7
1643460778050,14963.4192067,0
1643460778050,14963.4192098,4
1643460778085,14963.4192146,11
1643460778085,14963.4192175,16
1643460778085,14963.4192204,30
1643460778085,14963.4192234,44
1643460778085,14963.4192264,44
1643460778085,14963.4192293,33
1643460778085,14963.4192322,21
1643460778085,14963.4192351,16
1643460778085,14963.4192381,18
1643460778085,14963.4192436,18
1643460778117,14963.4192466,23
1643460778117,14963.4192506,28
1643460778117,14963.4192557,28
1643460778117,14963.4192586,28
1643460778117,14963.4192616,-16
1643460778117,14963.4192671,-82
1643460778117,14963.4192701,-7
1643460778117,14963.4192731,281
1643460778117,14963.4192772,605
1643460778117,14963.4192802,725
1643460778151,14963.4192832,432
1643460778151,14963.4192861,-47
1643460778151,14963.4192901,-120
1643460778151,14963.9217457,42
1643460778151,14963.9217567,11
1643460778151,14963.9217602,-37
1643460778151,14963.9217631,7
1643460778151,14963.921766,11
1643460778151,14963.9217687,-2
1643460778151,14963.9217715,14
1643460778173,14963.9217742,21
1643460778173,14963.921777,16
1643460778173,14963.9217798,18
1643460778173,14963.9217826,23
1643460778173,14963.9217854,28
1643460778173,14963.9217882,40
1643460778173,14963.9217911,44
1643460778173,14963.9217938,44
1643460778173,14963.9217966,42
1643460778173,14963.9217994,37
1643460778195,14963.9218022,33
1643460778195,14963.9218052,44
1643460778195,14963.9218082,54
1643460778195,14963.9218111,59
1643460778569,14963.9218175,70
1643460778569,14963.9218207,78
1643460778569,14963.9218717,70
1643460778569,14963.9218787,73
1643460778569,14963.921882,89
1643460778569,14963.921885,104
1643460778569,14963.921888,111
1643460778569,14963.9218911,113
1643460778569,14963.9218939,113
1643460778569,14963.9218967,111
1643460778591,14963.9218995,96
1643460778591,14963.9219023,75
1643460778591,14963.9219051,49
1643460778591,14963.9219082,21
1643460778591,14963.9219111,-4
1643460778591,14963.921914,-21
1643460778591,14963.9219168,-33
1643460778591,14963.9219196,-40
1643460778591,14963.9219223,-44
1643460778591,14963.9219251,-42
1643460778614,14963.9219279,-37
1643460778614,14963.9219306,-37
1643460778614,14963.9219334,-35
1643460778614,14963.9219361,-26
1643460778614,14963.921939,-23
1643460778614,14963.9219418,-18
1643460778614,14963.9219449,-11
1643460778614,14963.9219477,-9
1643460778614,14963.9219505,-9
1643460778614,14963.9219533,-9
1643460778648,14963.9219561,-11
1643460778648,14963.9219589,-7
1643460778648,14963.9219617,0
1643460778648,14963.9219645,0
1643460778648,14963.9219673,-9
1643460778648,14963.9219706,-9
1643460778648,14963.9219734,-7
1643460778648,14963.9219761,-11
1643460778648,14963.9219789,-11
1643460778648,14963.9219816,-2
1643460778673,14963.9219846,-4
1643460778673,14963.9219878,-9
1643460778673,14963.9219909,-7
1643460778673,14963.9219939,-2
1643460778673,14963.9220005,-2
1643460778673,14963.9220035,2
1643460778673,14963.9220079,4
1643460778673,14963.9220132,-2
1643460778673,14963.9220161,0
1643460778673,14963.9220199,9
1643460778696,14963.9220246,11
1643460778696,14963.9220285,14
1643460778696,14964.5218734,16
1643460778696,14964.5218862,14
1643460778696,14964.5218914,14
1643460778696,14964.5218968,18
1643460778696,14964.5218998,26
1643460778696,14964.521903,26
1643460778696,14964.5219083,18
1643460778696,14964.5219115,16
1643460778719,14964.5219146,28
1643460778719,14964.5219185,35
1643460778719,14964.5219216,40
1643460778719,14964.5219265,52
1643460778719,14964.5219313,54
1643460778719,14964.5219363,37
1643460778719,14964.5219394,9
1643460778719,14964.5219443,-14
1643460778719,14964.5219484,-23
1643460778719,14964.521953,-23
1643460778750,14964.5219561,-14
1643460778750,14964.5219592,-9
1643460778750,14964.5219641,-11
1643460778750,14964.5219689,-23
1643460779163,14964.5219737,-68
1643460779163,14964.5219775,-118
1643460779163,14964.5219804,-23
1643460779163,14964.5219834,264
1643460779163,14964.5219863,569
1643460779163,14964.5219891,628
1643460779163,14964.5219919,281
1643460779163,14964.5219948,-137
1643460779163,14964.521999,-132
1643460779163,14964.5220019,14
1643460779195,14964.5220049,-37
1643460779195,14964.5220078,-70
1643460779195,14964.5220106,-23
1643460779195,14964.5220134,-23
1643460779195,14964.5220164,-37
1643460779195,14964.5220193,-18
1643460779195,14964.5220221,-9
1643460779195,14964.522025,-16
1643460779195,14964.522028,-11
1643460779195,14964.5220311,-4
1643460779228,14964.5220342,-4
1643460779228,14964.5220372,-2
1643460779228,14964.522043,7
1643460779228,14964.5220469,11
1643460779228,14964.52205,16
1643460779228,14964.5220531,26
1643460779228,14964.522057,33
1643460779228,14964.5220601,37
1643460779228,14964.522064,52
1643460779228,14964.522067,61
1643460779261,14964.5220719,66
1643460779261,14964.5220748,80
1643460779261,14964.5220779,99
1643460779261,14964.5220818,115
1643460779261,14964.5220849,125
1643460779261,14964.5220888,127
1643460779261,14964.5220926,127
1643460779261,14964.5220976,134
1643460779261,14964.5221024,137
1643460779261,14964.522107,125
1643460779295,14964.5221117,106
1643460779295,14964.5221164,87
1643460779295,14964.5221208,61
1643460779295,14964.5221257,28
1643460779295,14964.5221302,-4
1643460779295,14964.5221351,-23
1643460779295,14964.5221384,-35
1643460779295,14964.5221435,-44
1643460779295,14964.5221466,-49
1643460779295,14964.5221507,-47
1643460779328,14964.5221538,-42
1643460779328,14965.120359,-47
1643460779328,14965.1203715,-52
1643460779328,14965.1203766,-47
1643460779328,14965.1203815,-44
1643460779328,14965.1203863,-44
1643460779328,14965.1203909,-37
1643460779328,14965.1203936,-28
1643460779328,14965.1203965,-30
1643460779328,14965.1203994,-40
1643460779361,14965.1204022,-40
1643460779361,14965.1204051,-35
1643460779361,14965.1204078,-33
1643460779361,14965.1204107,-30
1643460779361,14965.1204135,-35
1643460779361,14965.1204163,-40
1643460779361,14965.1204191,-35
1643460779361,14965.1204246,-28
1643460779361,14965.1204286,-30
1643460779361,14965.1204329,-26
1643460779394,14965.1204358,-35
1643460779394,14965.1204404,-61
1643460779394,14965.1204431,-66
1643460779394,14965.1204459,-49
1643460779664,14965.1204487,-44
1643460779664,14965.1204514,-49
1643460779664,14965.1204541,-44
1643460779664,14965.120457,-35
1643460779664,14965.1204597,-30
1643460779664,14965.1204624,-30
1643460779664,14965.1204651,-26
1643460779664,14965.1204679,-23
1643460779664,14965.1204705,-23
1643460779664,14965.1204732,-28
1643460779689,14965.1204759,-23
1643460779689,14965.1204786,-21
1643460779689,14965.1204812,-21
1643460779689,14965.1204839,-16
1643460779689,14965.1204866,-7
1643460779689,14965.1204893,4
1643460779689,14965.1204923,16
1643460779689,14965.120495,23
1643460779689,14965.1204982,18
1643460779689,14965.1205011,4
1643460779712,14965.1205038,7
1643460779712,14965.1205067,9
1643460779712,14965.1205095,9
1643460779712,14965.1205124,14
1643460779712,14965.1205152,18
1643460779712,14965.120518,16
1643460779712,14965.1205209,7
1643460779712,14965.1205237,-23
1643460779712,14965.1205265,-70
1643460779712,14965.1205293,-28
1643460779740,14965.1205321,222
1643460779740,14965.1205349,546
1643460779740,14965.1205377,657
1643460779740,14965.1205405,382
1643460779740,14965.1205433,-37
1643460779740,14965.1205461,-120
1643460779740,14965.1205489,11
1643460779740,14965.1205517,0
1643460779740,14965.1205548,-44
1643460779740,14965.1205596,-11
1643460779762,14965.1205635,2
1643460779762,14965.1205663,-9
1643460779762,14965.1205692,-7
1643460779762,14965.120572,0
1643460779762,14965.1205749,2
1643460779762,14965.1205777,2
1643460779762,14965.1205805,7
1643460779762,14965.1205832,21
1643460779762,14965.1205861,30
1643460779762,14965.1205889,28
1643460779786,14965.6225776,28
1643460779786,14965.6225898,35
1643460779786,14965.6225935,33
1643460779786,14965.6225966,30
1643460779786,14965.6226028,42
1643460779786,14965.6226067,54
1643460779786,14965.6226098,61
1643460779786,14965.6226129,73
1643460779786,14965.6226159,87
1643460779786,14965.6226188,106
1643460779810,14965.6226218,122
1643460779810,14965.6226266,125
1643460779810,14965.6226297,125
1643460779810,14965.6226351,137
1643460779810,14965.6226387,146
1643460779810,14965.6226439,146
1643460779810,14965.622647,141
1643460779810,14965.6226503,118
1643460779810,14965.6226548,75
1643460779810,14965.6226579,33
1643460779841,14965.6226618,0
1643460779841,14965.6226658,-33
1643460779841,14965.6226689,-56
1643460779841,14965.6226747,-75
1643460780175,14965.6226777,-99
1643460780175,14965.6226808,-113
1643460780175,14965.6226837,-106
1643460780175,14965.6226865,-94
1643460780175,14965.6226894,-92
1643460780175,14965.6226922,-92
1643460780175,14965.6226959,-85
1643460780175,14965.6226987,-73
1643460780175,14965.6227015,-68
1643460780175,14965.6227044,-61
1643460780207,14965.6227073,-56
1643460780207,14965.6227102,-49
1643460780207,14965.6227131,-42
1643460780207,14965.6227159,-40
1643460780207,14965.6227187,-42
1643460780207,14965.6227224,-40
1643460780207,14965.6227261,-33
1643460780207,14965.622729,-28
1643460780207,14965.622732,-26
1643460780207,14965.6227348,-28
1643460780249,14965.6227377,-26
1643460780249,14965.6227406,-21
1643460780249,14965.6227585,-14
1643460780249,14965.6227752,-11
1643460780249,14965.6227839,-11
1643460780249,14965.6227876,-9
1643460780249,14965.6227927,-2
1643460780249,14965.6227965,2
1643460780249,14965.6227998,0
1643460780249,14965.622804,2
1643460780280,14965.622809,11
1643460780280,14965.6228121,7
1643460780280,14965.6228152,-2
1643460780280,14965.6228202,9
1643460780280,14965.6228249,18
1643460780280,14965.6228298,9
1643460780280,14965.6228339,-2
1643460780280,14965.6228388,0
1643460780280,14965.6228421,16
1643460780280,14965.6228468,35
1643460780308,14965.6228509,37
1643460780308,14965.6228558,44
1643460780308,14965.6228604,59
1643460780308,14965.6228652,44
1643460780308,14965.6228687,18
1643460780308,14965.6228735,23
1643460780308,14965.6228768,35
1643460780308,14965.6228819,30
1643460780308,14965.6228861,28
1643460780308,14966.1218599,26
1643460780341,14966.1218709,28
1643460780341,14966.1218764,21
1643460780341,14966.1218806,-26
1643460780341,14966.1218837,-73
1643460780341,14966.1218867,33
1643460780341,14966.1218896,347
1643460780341,14966.1218942,650
1643460780341,14966.1218971,657
1643460780341,14966.1219326,286
1643460780341,14966.1219394,-89
1643460780374,14966.1219427,-66
1643460780374,14966.1219469,56
1643460780374,14966.1219498,4
1643460780374,14966.1219526,-30
1643460780374,14966.1219555,7
1643460780374,14966.1219583,7
1643460780374,14966.1219611,-21
1643460780374,14966.121964,-33
1643460780374,14966.1219668,-33
1643460780374,14966.1219697,-23
1643460780407,14966.1219725,-7
1643460780407,14966.1219753,2
1643460780407,14966.1219792,4
1643460780407,14966.1219821,14
1643460780774,14966.121985,23
1643460780774,14966.1219887,21
1643460780774,14966.1219917,21
1643460780774,14966.1219945,37
1643460780774,14966.1219974,52
1643460780774,14966.1220133,52
1643460780774,14966.1220174,61
1643460780774,14966.1220204,78
1643460780774,14966.1220233,85
1643460780774,14966.1220262,89
1643460780807,14966.122029,101
1643460780807,14966.1220318,113
1643460780807,14966.1220346,122
1643460780807,14966.1220374,137
1643460780807,14966.1220402,144
1643460780807,14966.122043,137
1643460780807,14966.1220459,127
1643460780807,14966.1220486,122
1643460780807,14966.1220515,106
1643460780807,14966.1220542,82
1643460780841,14966.1220571,52
1643460780841,14966.1220599,11
1643460780841,14966.1220628,-21
1643460780841,14966.1220656,-33
1643460780841,14966.1220684,-40
1643460780841,14966.1220713,-47
1643460780841,14966.1220741,-52
1643460780841,14966.1220769,-52
1643460780841,14966.1220797,-40
1643460780841,14966.1220825,-30
1643460780864,14966.1220853,-33
1643460780864,14966.1220881,-30
1643460780864,14966.1220911,-23
1643460780864,14966.1220939,-16
1643460780864,14966.1220967,-14
1643460780864,14966.1220996,-18
1643460780864,14966.1221024,-21
1643460780864,14966.1221052,-26
1643460780864,14966.122108,-28
1643460780864,14966.1221109,-23
1643460780887,14966.1221139,-11
1643460780887,14966.1221167,-2
1643460780887,14966.1221195,-4
1643460780887,14966.1221225,-14
1643460780887,14966.1221253,-11
1643460780887,14966.1221282,-9
1643460780887,14966.122131,-11
1643460780887,14966.122134,-4
1643460780887,14966.7202255,4
1643460780887,14966.720239,11
1643460780911,14966.7202427,9
1643460780911,14966.7202479,-9
1643460780911,14966.7202509,-21
1643460780911,14966.720254,-11
1643460780911,14966.720258,-2
1643460780911,14966.7202612,-2
1643460780911,14966.7202661,-16
1643460780911,14966.7202703,-40
1643460780911,14966.7202751,-35
1643460780911,14966.7202796,-7
1643460780942,14966.7202847,0
1643460780942,14966.7202895,-4
1643460780942,14966.7202944,2
1643460780942,14966.7202984,0
1643460780942,14966.7203034,-9
1643460780942,14966.7203081,-7
1643460780942,14966.720313,-16
1643460780942,14966.7203177,-35
1643460780942,14966.7203216,-7
1643460780942,14966.7203248,49
1643460780966,14966.72033,56
1643460780966,14966.720333,30
1643460780966,14966.7203368,-7
1643460780966,14966.7203417,-66
1643460781270,14966.7203457,-80
1643460781270,14966.7203487,49
1643460781270,14966.7203516,340
1643460781270,14966.7203545,593
1643460781270,14966.7203573,479
1643460781270,14966.7203602,44
1643460781270,14966.7203631,-172
1643460781270,14966.7203659,-49
1643460781270,14966.7203687,2
1643460781270,14966.7203715,-68
1643460781292,14966.7203743,-68
1643460781292,14966.7203771,-28
1643460781292,14966.7203799,-9
1643460781292,14966.7203827,-9
1643460781292,14966.7203855,-30
1643460781292,14966.7203883,-21
1643460781292,14966.7203914,11
1643460781292,14966.7203945,11
1643460781292,14966.7203997,4
1643460781292,14966.7204031,4
1643460781317,14966.7204078,4
1643460781317,14966.7204107,26
1643460781317,14966.7204138,63
1643460781317,14966.7204188,59
1643460781317,14966.7204236,18
1643460781317,14966.7204286,9
1643460781317,14966.720433,33
1643460781317,14966.7204379,42
1643460781317,14966.7204409,44
1643460781317,14966.720445,68
1643460781341,14966.720448,85
1643460781341,14966.7204527,82
1643460781341,14966.7204557,92
1643460781341,14966.7204587,101
1643460781341,14966.7204627,125
1643460781341,14966.7204657,146
1643460781341,14966.7204696,130
1643460781341,14966.7204731,99
1643460781341,14966.7204777,92
1643460781341,14966.7204827,73
1643460781374,14966.7204868,44
1643460781374,14966.7204898,61
1643460781374,14966.7204936,37
1643460781374,14966.7204966,-49
1643460781374,14966.7205014,-78
1643460781374,14966.720506,-68
1643460781374,14966.7205108,-52
1643460781374,14967.221967,-61
1643460781374,14967.2219818,-106
1643460781374,14967.2219856,-66
1643460781395,14967.2219907,0
1643460781395,14967.2219938,-14
1643460781395,14967.2219969,-33
1643460781395,14967.2219999,-47
1643460781395,14967.222003,-82
1643460781395,14967.222006,-52
1643460781395,14967.2220091,16
1643460781395,14967.2220132,-4
1643460781395,14967.2220162,-28
1643460781395,14967.2220193,-4
1643460781422,14967.2220222,-52
1643460781422,14967.2220252,-115
1643460781422,14967.2220282,-73
1643460781422,14967.2220312,-16
1643460781422,14967.2220342,-23
1643460781422,14967.2220372,-35
1643460781422,14967.2220402,-37
1643460781422,14967.2220433,-68
1643460781422,14967.2220463,-87
1643460781422,14967.2220493,-44
1643460781446,14967.2220523,0
1643460781446,14967.2220553,-21
1643460781446,14967.2220582,-52
1643460781446,14967.2220612,-49
1643460781951,14967.2220642,-49
1643460781951,14967.2220671,-47
1643460781951,14967.22207,-42
1643460781951,14967.2220728,-23
1643460781951,14967.2220758,7
1643460781951,14967.2220786,9
1643460781951,14967.2220819,-21
1643460781951,14967.2220848,-52
1643460781951,14967.2220876,-47
1643460781951,14967.2220905,-16
1643460781986,14967.2220934,-9
1643460781986,14967.2220963,-11
1643460781986,14967.2220992,-7
1643460781986,14967.2221021,-35
1643460781986,14967.2221049,-52
1643460781986,14967.2221077,-42
1643460781986,14967.222111,-63
1643460781986,14967.2221141,-68
1643460781986,14967.2221172,87
1643460781986,14967.2221221,411
1643460782020,14967.2221252,652
1643460782020,14967.2221294,501
1643460782020,14967.2221325,54
1643460782020,14967.2221355,-174
1643460782020,14967.2221385,-73
1643460782020,14967.2221416,-14
1643460782020,14967.2221458,-54
1643460782020,14967.222149,-56
1643460782020,14967.222152,-49
1643460782020,14967.222155,-52
1643460782052,14967.2221581,-56
1643460782052,14967.2221633,-42
1643460782052,14967.2221664,-7
1643460782052,14967.2221694,-9
1643460782052,14967.2221725,2
1643460782052,14967.2221755,14
1643460782052,14967.2221801,-35
1643460782052,14967.2221832,-35
1643460782052,14967.2221862,21
1643460782052,14967.2221913,-2
1643460782083,14967.2221944,-11
1643460782083,14967.2221986,52
1643460782083,14967.2222016,68
1643460782083,14967.2222046,30
1643460782083,14967.2222076,33
1643460782083,14967.2222107,94
1643460782083,14967.9163958,108
1643460782083,14967.9164093,87
1643460782083,14967.9164136,122
1643460782083,14967.9164191,156
1643460782117,14967.916424,177
1643460782117,14967.916429,182
1643460782117,14967.916432,130
1643460782117,14967.9164349,106
1643460782117,14967.9164379,130
1643460782117,14967.916441,115
1643460782117,14967.9164461,68
1643460782117,14967.9164508,35
1643460782117,14967.9164558,-9
1643460782117,14967.9164604,-49
1643460782152,14967.9164644,-61
1643460782152,14967.9164675,-82
1643460782152,14967.9164713,-96
1643460782152,14967.9164744,-87
1643460782152,14967.9164783,-82
1643460782152,14967.9164813,-61
1643460782152,14967.9164857,-54
1643460782152,14967.9164886,-101
1643460782152,14967.9164914,-113
1643460782152,14967.9164944,-70
1643460782184,14967.9164972,-56
1643460782184,14967.9165001,-63
1643460782184,14967.916503,-56
1643460782184,14967.9165459,-63
1643460782417,14967.9165506,-63
1643460782417,14967.9165538,-42
1643460782417,14967.9165567,-28
1643460782417,14967.9165596,-16
1643460782417,14967.9165625,-35
1643460782417,14967.9165654,-73
1643460782417,14967.9165682,-85
1643460782417,14967.916571,-75
1643460782417,14967.9165739,-59
1643460782417,14967.9165767,-75
1643460782452,14967.9165796,-120
1643460782452,14967.9165824,-127
1643460782452,14967.9165852,-108
1643460782452,14967.9165881,-104
1643460782452,14967.9165909,-104
1643460782452,14967.9165937,-85
1643460782452,14967.9165967,-59
1643460782452,14967.9165997,-63
1643460782452,14967.9166026,-94
1643460782452,14967.9166055,-115
1643460782484,14967.9166083,-120
1643460782484,14967.9166112,-108
1643460782484,14967.916614,-94
1643460782484,14967.9166169,-99
1643460782484,14967.9166197,-120
1643460782484,14967.9166225,-141
1643460782484,14967.9166255,-113
1643460782484,14967.9166283,-125
1643460782484,14967.9166311,-229
1643460782484,14967.9166339,-241
1643460782517,14967.9166368,-11
1643460782517,14967.9166398,368
1643460782517,14967.9166426,614
1643460782517,14967.9166455,460
1643460782517,14967.9166492,42
1643460782517,14967.9166523,-158
1643460782517,14967.9166554,-113
1643460782517,14967.9166622,-120
1643460782517,14967.9166653,-120
1643460782517,14967.9166729,-61
1643460782551,14967.916676,-61
1643460782551,14967.9166947,-80
1643460782551,14967.9167009,-70
1643460782551,14967.916704,-73
1643460782551,14967.9167336,-66
1643460782551,14968.3722943,-44
1643460782551,14968.372305,-75
1643460782551,14968.3723089,-115
1643460782551,14968.3723117,-82
1643460782551,14968.3723145,-23
1643460782583,14968.3723173,7
1643460782583,14968.37232,18
1643460782583,14968.3723227,63
1643460782583,14968.3723254,125
1643460782583,14968.3723281,118
1643460782583,14968.3723308,113
1643460782583,14968.3723335,156
1643460782583,14968.3723362,156
1643460782583,14968.3723435,179
1643460782583,14968.3723463,241
1643460782617,14968.3723492,255
1643460782617,14968.372352,286
1643460782617,14968.3723549,302
1643460782617,14968.3723576,252
1643460782617,14968.3723604,222
1643460782617,14968.3723632,208
1643460782617,14968.372366,226
1643460782617,14968.3723687,226
1643460782617,14968.3723715,132
1643460782617,14968.3723743,132
1643460782651,14968.3723771,127
1643460782651,14968.37238,-47
1643460782651,14968.3723828,-28
1643460782651,14968.3723856,198
1643460783013,14968.3723888,163
1643460783013,14968.3723915,-11
1643460783013,14968.3723942,0
1643460783013,14968.3723968,30
1643460783013,14968.3723995,-26
1643460783013,14968.3724022,-2
1643460783013,14968.3724048,66
1643460783013,14968.3724076,23
1643460783013,14968.3724103,-35
1643460783013,14968.372413,2
1643460783037,14968.3724156,18
1643460783037,14968.3724183,-23
1643460783037,14968.372421,21
1643460783037,14968.3724238,61
1643460783037,14968.3724265,-30
1643460783037,14968.3724292,-23
1643460783037,14968.3724319,70
1643460783037,14968.3724346,-47
1643460783037,14968.3724373,-182
1643460783037,14968.37244,-99
1643460783062,14968.3724427,-44
1643460783062,14968.3724455,-96
1643460783062,14968.3724482,-85
1643460783062,14968.3724512,-37
1643460783062,14968.3724538,-56
1643460783062,14968.3724565,-94
1643460783062,14968.3724596,-56
1643460783062,14968.3724624,-11
1643460783062,14968.3724653,-26
1643460783062,14968.3724682,-30
1643460783097,14968.372471,-63
1643460783097,14968.3724738,-113
1643460783097,14968.3724766,-78
1643460783097,14968.3724796,14
1643460783097,14968.3724824,63
1643460783097,14968.3724852,37
1643460783097,14968.372488,-14
1643460783097,14968.3724909,4
1643460783097,14968.3724939,61
1643460783097,14968.372498,44
1643460783122,14968.372501,11
1643460783122,14968.3725073,156
1643460783122,14968.3725103,529
1643460783122,14968.3725144,834
1643460783122,14968.9713579,687
1643460783122,14968.9713706,217
1643460783122,14968.9713756,-26
1643460783122,14968.9713811,30
1643460783122,14968.9713843,49
1643460783122,14968.9713893,35
1643460783146,14968.9713925,2
1643460783146,14968.9713978,-33
1643460783146,14968.9714011,52
1643460783146,14968.9714042,106
1643460783146,14968.9714079,18
1643460783146,14968.9714111,-47
1643460783146,14968.9714161,-54
1643460783146,14968.9714193,-26
1643460783146,14968.9714246,7
1643460783146,14968.9714278,-82
1643460783170,14968.9714327,-215
1643460783170,14968.9714363,-224
1643460783170,14968.9714413,-210
1643460783170,14968.9714445,-274
1643460783170,14968.9714494,-302
1643460783170,14968.9714526,-243
1643460783170,14968.9714576,-212
1643460783170,14968.9714608,-212
1643460783170,14968.9714657,-144
1643460783170,14968.9714694,-21
1643460783196,14968.9714742,37
1643460783196,14968.9714774,59
1643460783196,14968.9714822,104
1643460783196,14968.9714854,134
1643460783620,14968.9714903,118
1643460783620,14968.9714934,87
1643460783620,14968.9714962,120
1643460783620,14968.9714991,224
1643460783620,14968.971502,234
1643460783620,14968.9715048,141
1643460783620,14968.9715077,89
1643460783620,14968.9715105,85
1643460783620,14968.9715134,75
1643460783620,14968.9715162,30
1643460783653,14968.9715191,-16
1643460783653,14968.9715219,21
1643460783653,14968.9715248,89
1643460783653,14968.9715277,16
1643460783653,14968.9715306,-82
1643460783653,14968.9715336,4
1643460783653,14968.9715365,87
1643460783653,14968.9715394,49
1643460783653,14968.9715423,11
1643460783653,14968.9715452,-33
1643460783685,14968.971548,14
1643460783685,14968.9715509,153
1643460783685,14968.9715538,134
1643460783685,14968.9715567,-11
1643460783685,14968.9715596,-40
1643460783685,14968.9715625,49
1643460783685,14968.9715653,68
1643460783685,14968.9715688,-33
1643460783685,14968.9715719,-42
1643460783685,14968.9715749,44
1643460783722,14968.9715779,28
1643460783722,14968.9715839,-35
1643460783722,14968.971587,9
1643460783722,14968.9715919,63
1643460783722,14968.9715951,-9
1643460783722,14968.9716001,-63
1643460783722,14968.9716034,0
1643460783722,14968.9716082,30
1643460783722,14968.9716112,9
1643460783722,14968.9716153,16
1643460783758,14968.9716203,-2
1643460783758,14968.9716234,-21
1643460783758,14968.9716283,40
1643460783758,14969.5692836,94
1643460783758,14969.5692968,52
1643460783758,14969.5693006,2
1643460783758,14969.5693057,7
1643460783758,14969.569309,-18
1643460783758,14969.5693139,37
1643460783758,14969.5693171,392
1643460783789,14969.5693226,801
1643460783789,14969.5693255,732
1643460783789,14969.5693293,212
1643460783789,14969.5693331,-151
1643460783789,14969.5693362,-92
1643460783789,14969.5693413,40
1643460783789,14969.5693444,21
1643460783789,14969.5693493,-54
1643460783789,14969.5693524,-87
1643460783789,14969.5693574,-94
1643460783821,14969.5693605,-104
1643460783821,14969.5693658,-61
1643460783821,14969.569369,11
1643460783821,14969.569374,14
1643460783821,14969.5693771,-47
1643460783821,14969.5693801,-63
1643460783821,14969.5693832,-28
1643460783821,14969.5693862,-16
1643460783821,14969.5693892,-54
1643460783821,14969.5693922,-96
1643460783852,14969.5693952,-33
1643460783852,14969.5693982,75
1643460783852,14969.5694011,44
1643460783852,14969.5694041,-47
1643460784119,14969.5694072,0
1643460784119,14969.5694102,104
1643460784119,14969.569413,92
1643460784119,14969.5694158,49
1643460784119,14969.5694186,78
1643460784119,14969.5694214,118
1643460784119,14969.5694242,146
1643460784119,14969.569427,153
1643460784119,14969.5694298,156
1643460784119,14969.5694325,193
1643460784151,14969.5694353,184
1643460784151,14969.5694382,101
1643460784151,14969.569441,70
1643460784151,14969.5694438,82
1643460784151,14969.5694466,23
1643460784151,14969.5694495,-35
1643460784151,14969.5694523,-33
1643460784151,14969.5694551,-52
1643460784151,14969.5694579,-68
1643460784151,14969.5694608,-44
1643460784185,14969.5694636,-42
1643460784185,14969.5694666,-78
1643460784185,14969.5694695,-59
1643460784185,14969.5694724,-4
1643460784185,14969.5694753,-35
1643460784185,14969.5694782,-78
1643460784185,14969.5694828,-44
1643460784185,14969.569488,-23
1643460784185,14969.5694918,-2
1643460784185,14969.5694967,44
1643460784218,14969.5694999,0
1643460784218,14969.5695061,-89
1643460784218,14969.5695093,-49
1643460784218,14969.5695144,7
1643460784218,14969.5695176,2
1643460784218,14969.5695239,56
1643460784218,14969.5695315,92
1643460784218,14969.5695382,-21
1643460784218,14969.5695414,-94
1643460784218,14969.5695465,52
1643460784252,14969.5695496,167
1643460784252,14969.5695526,49
1643460784252,14970.069644,-73
1643460784252,14970.0696562,-4
1643460784252,14970.069661,80
1643460784252,14970.0696665,56
1643460784252,14970.0696698,16
1643460784252,14970.0696749,-40
1643460784252,14970.069678,-127
1643460784252,14970.0696822,-132
1643460784286,14970.0696853,-52
1643460784286,14970.0696902,-49
1643460784286,14970.0696932,-151
1643460784286,14970.0696963,-33
1643460784286,14970.0697012,442
1643460784286,14970.0697061,763
1643460784286,14970.069711,543
1643460784286,14970.0697158,106
1643460784286,14970.0697207,-94
1643460784286,14970.0697239,-61
1643460784319,14970.0697271,-49
1643460784319,14970.0697321,-99
1643460784319,14970.0697366,-99
1643460784319,14970.0697414,-56
1643460784319,14970.0697444,-47
1643460784319,14970.0697475,-99
1643460784319,14970.0697515,-127
1643460784319,14970.0697563,-70
1643460784319,14970.0697611,-2
1643460784319,14970.069766,-18
1643460784351,14970.0697718,-61
1643460784351,14970.0697767,-47
1643460784351,14970.0697797,-23
1643460784351,14970.0697826,-26
1643460784640,14970.0697856,-40
1643460784640,14970.0697886,-37
1643460784640,14970.0697926,18
1643460784640,14970.0697958,44
1643460784640,14970.0697987,-11
1643460784640,14970.0698017,-4
1643460784640,14970.0698046,78
1643460784640,14970.0698076,125
1643460784640,14970.0698106,106
1643460784640,14970.0698135,68
1643460784665,14970.0698165,120
1643460784665,14970.0698194,226
1643460784665,14970.0698226,203
1643460784665,14970.0698255,85
1643460784665,14970.0698285,80
1643460784665,14970.0698314,141
1643460784665,14970.0698344,120
1643460784665,14970.0698374,89
1643460784665,14970.0698403,33
1643460784665,14970.0698433,-70
1643460784691,14970.0698462,-59
1643460784691,14970.0698492,21
1643460784691,14970.0698521,0
1643460784691,14970.0698551,-87
1643460784691,14970.069858,-148
1643460784691,14970.069861,-108
1643460784691,14970.0698639,-30
1643460784691,14970.0698669,-94
1643460784691,14970.06987,-196
1643460784691,14970.069873,-96
1643460784720,14970.0698761,52
1643460784720,14970.0698791,-52
1643460784720,14970.0698821,-200
1643460784720,14970.0698851,-127
1643460784720,14970.0698881,-96
1643460784720,14970.069891,-179
1643460784720,14970.0699338,-137
1643460784720,14970.0699455,-26
1643460784720,14970.0699496,-14
1643460784720,14970.0699528,2
1643460784744,14970.0699558,68
1643460784744,14970.5724407,-70
1643460784744,14970.5724536,-222
1643460784744,14970.5724573,0
1643460784744,14970.5724627,125
1643460784744,14970.5724669,-85
1643460784744,14970.57247,-125
1643460784744,14970.5724731,35
1643460784744,14970.5724767,78
1643460784744,14970.5724797,4
1643460784770,14970.5724828,-42
1643460784770,14970.5724879,-42
1643460784770,14970.5724911,-23
1643460784770,14970.572496,-11
1643460784770,14970.5724992,-35
1643460784770,14970.5725049,-108
1643460784770,14970.5725081,-144
1643460784770,14970.5725133,40
1643460784770,14970.572517,425
1643460784770,14970.5725232,732
1643460784796,14970.5725264,638
1643460784796,14970.5725314,156
1643460784796,14970.5725345,-137
1643460784796,14970.5725395,-30
1643460784796,14970.5725427,26
1643460784796,14970.5725476,-37
1643460784796,14970.5725508,-14
1643460784796,14970.5725561,-4
1643460784796,14970.5725592,-68
1643460784796,14970.5725641,-66
1643460784821,14970.5725673,-2
1643460784821,14970.5725722,4
1643460784821,14970.5725754,-33
1643460784821,14970.5725811,-33
1643460785206,14970.5725844,26
1643460785206,14970.5725873,82
1643460785206,14970.5725902,44
1643460785206,14970.572593,7
1643460785206,14970.5725959,52
1643460785206,14970.5725987,30
1643460785206,14970.5726015,-2
1643460785206,14970.5726043,122
1643460785206,14970.5726071,170
1643460785206,14970.5726099,59
1643460785242,14970.5726127,70
1643460785242,14970.5726156,139
1643460785242,14970.5726185,99
1643460785242,14970.5726213,68
1643460785242,14970.5726242,115
1643460785242,14970.5726269,170
1643460785242,14970.5726298,144
1643460785242,14970.5726326,80
1643460785242,14970.5726354,148
1643460785242,14970.5726381,219
1643460785287,14970.5726409,160
1643460785287,14970.5726437,94
1643460785287,14970.5726465,30
1643460785287,14970.5726494,-40
1643460785287,14970.5726522,-54
1643460785287,14970.5726549,44
1643460785287,14970.5726577,120
1643460785287,14970.5726606,-47
1643460785287,14970.5726633,-222
1643460785287,14970.5726662,-111
1643460785313,14970.572669,-16
1643460785313,14970.5726718,-132
1643460785313,14970.5726746,-198
1643460785313,14970.5726773,-174
1643460785313,14970.5726801,-191
1643460785313,14970.5726829,-158
1643460785313,14970.572686,-96
1643460785313,14970.5726888,-113
1643460785313,14970.5726916,-104
1643460785313,14970.5726944,-44
1643460785341,14971.1723216,-42
1643460785341,14971.1723343,-82
1643460785341,14971.1723389,-101
1643460785341,14971.1723443,-118
1643460785341,14971.1723473,-106
1643460785341,14971.1723503,-37
1643460785341,14971.1723533,-28
1643460785341,14971.1723562,-108
1643460785341,14971.1723591,-130
1643460785341,14971.172362,-73
1643460785373,14971.172365,-63
1643460785373,14971.1723679,-21
1643460785373,14971.1723708,42
1643460785373,14971.1723745,-21
1643460785373,14971.1723774,-82
1643460785373,14971.1723804,-47
1643460785373,14971.1723855,2
1643460785373,14971.1723885,23
1643460785373,14971.1723915,68
1643460785373,14971.1723965,96
1643460785405,14971.1723994,-7
1643460785405,14971.1724045,-42
1643460785405,14971.1724076,170
1643460785405,14971.1724126,477
1643460785405,14971.1724156,730
1643460785405,14971.1724186,784
1643460785405,14971.1724215,477
1643460785405,14971.1724244,47
1643460785405,14971.1724274,-56
1643460785405,14971.1724302,56
1643460785441,14971.1724331,85
1643460785441,14971.172436,78
1643460785441,14971.1724389,68
1643460785441,14971.1724421,40
1643460785773,14971.1724474,61
1643460785773,14971.1724503,120
1643460785773,14971.172453,130
1643460785773,14971.172456,49
1643460785773,14971.172459,30
1643460785773,14971.1724621,134
1643460785773,14971.1724651,113
1643460785773,14971.1724678,-23
1643460785773,14971.1724705,11
1643460785773,14971.1724733,127
1643460785807,14971.172476,85
1643460785807,14971.1724788,-18
1643460785807,14971.1724815,-2
1643460785807,14971.1724842,94
1643460785807,14971.1724869,156
1643460785807,14971.1724897,111
1643460785807,14971.1724924,-2
1643460785807,14971.1724951,-18
1643460785807,14971.1724979,94
1643460785807,14971.1725006,208
1643460785841,14971.1725033,229
1643460785841,14971.172506,146
1643460785841,14971.1725088,73
1643460785841,14971.1725152,125
1643460785841,14971.172518,158
1643460785841,14971.172521,59
1643460785841,14971.1725239,2
1643460785841,14971.1725267,7
1643460785841,14971.1725296,26
1643460785841,14971.1725325,63
1643460785872,14971.1725356,-59
1643460785872,14971.1725406,-165
1643460785872,14971.1725446,-42
1643460785872,14971.1725495,4
1643460785872,14971.1725525,-122
1643460785872,14971.1725555,-148
1643460785872,14971.1725586,-47
1643460785872,14971.1725615,-18
1643460785872,14971.1725644,-99
1643460785872,14971.7218111,-96
1643460785907,14971.721828,-23
1643460785907,14971.7218342,-73
1643460785907,14971.7218407,-106
1643460785907,14971.7218496,18
1643460785907,14971.7218557,9
1643460785907,14971.721859,-108
1643460785907,14971.7218635,4
1643460785907,14971.7218688,49
1643460785907,14971.7218721,-193
1643460785907,14971.721876,-215
1643460785941,14971.7218792,-28
1643460785941,14971.7218823,-28
1643460785941,14971.7218865,-87
1643460785941,14971.7218918,-99
1643460785941,14971.7218951,-28
1643460785941,14971.7218983,99
1643460785941,14971.7219031,42
1643460785941,14971.7219072,-127
1643460785941,14971.7219112,-122
1643460785941,14971.7219154,4
1643460785974,14971.7219186,54
1643460785974,14971.7219241,-42
1643460785974,14971.7219287,-151
1643460785974,14971.7219337,-85
1643460785974,14971.7219369,59
1643460785974,14971.7219401,16
1643460785974,14971.7219452,-146
1643460785974,14971.7219502,-151
1643460785974,14971.7219552,96
1643460785974,14971.7219598,458
1643460785998,14971.7219648,666
1643460785998,14971.721969,586
1643460785998,14971.7219739,191
1643460785998,14971.7219771,-184
1643460786528,14971.7219803,-144
1643460786528,14971.7219833,-4
1643460786528,14971.7219863,-44
1643460786528,14971.7219893,-78
1643460786528,14971.7219922,-54
1643460786528,14971.7219952,-44
1643460786528,14971.7219981,-42
1643460786528,14971.7220011,-54
1643460786528,14971.722004,-70
1643460786528,14971.722007,-54
1643460786554,14971.7220099,-2
1643460786554,14971.7220129,-9
1643460786554,14971.7220158,-101
1643460786554,14971.7220188,-127
1643460786554,14971.7220217,-47
1643460786554,14971.7220247,30
1643460786554,14971.7220278,63
1643460786554,14971.7220332,87
1643460786554,14971.7220365,63
1643460786554,14971.7220406,-89
1643460786587,14971.7220439,-141
1643460786587,14971.7220494,49
1643460786587,14971.7220527,167
1643460786587,14971.7220577,70
1643460786587,14971.7220608,4
1643460786587,14971.722064,66
1643460786587,14971.7220691,99
1643460786587,14971.7220743,63
1643460786587,14971.7220794,40
1643460786587,14971.7220842,56
1643460786611,14971.722089,111
1643460786611,14971.7220941,179
1643460786611,14971.7220991,144
1643460786611,14971.7221023,-47
1643460786611,14971.7221073,-104
1643460786611,14971.7221122,26
1643460786611,14971.722117,7
1643460786611,14971.722122,-122
1643460786611,14972.4702668,-167
1643460786611,14972.470279,-120
1643460786635,14972.4702826,-40
1643460786635,14972.4702856,-54
1643460786635,14972.4702885,-75
1643460786635,14972.4702915,-28
1643460786635,14972.4702943,-63
1643460786635,14972.4702973,-160
1643460786635,14972.4703002,-229
1643460786635,14972.4703031,-163
1643460786635,14972.4703061,18
1643460786635,14972.470309,61
1643460786663,14972.4703118,-87
1643460786663,14972.4703147,-191
1643460786663,14972.4703179,-134
1643460786663,14972.4703208,-2
1643460786663,14972.4703237,54
1643460786663,14972.4703266,-33
1643460786663,14972.4703294,-158
1643460786663,14972.4703322,-94
1643460786663,14972.4703351,-16
1643460786663,14972.470338,-174
1643460786695,14972.4703409,-196
1643460786695,14972.4703438,-33
1643460786695,14972.4703466,-47
1643460786695,14972.4703495,-85
1643460786695,14972.4703524,2
1643460786695,14972.4703553,7
1643460786695,14972.4703581,-35
1643460786695,14972.470361,-37
1643460786695,14972.4703638,-82
1643460786695,14972.4703667,-120
1643460786730,14972.4703697,-42
1643460786730,14972.4703726,63
1643460786730,14972.4703755,-42
1643460786730,14972.4703785,-212
1643460786930,14972.4703813,-66
1643460786930,14972.4703842,170
1643460786930,14972.4703872,297
1643460786930,14972.47039,664
1643460786930,14972.4703928,874
1643460786930,14972.4703956,356
1643460786930,14972.4704022,-200
1643460786930,14972.4704055,-234
1643460786930,14972.4704085,-151
1643460786930,14972.4704114,-40
1643460786962,14972.4704143,139
1643460786962,14972.4704173,4
1643460786962,14972.4704202,-269
1643460786962,14972.4704232,-156
1643460786962,14972.4704261,115
1643460786962,14972.470429,87
1643460786962,14972.470432,-132
1643460786962,14972.470435,-144
1643460786962,14972.4704382,47
1643460786962,14972.470441,122
1643460786997,14972.4704442,73
1643460786997,14972.4704472,-35
1643460786997,14972.4704501,-66
1643460786997,14972.4715974,75
1643460786997,14972.4716361,111
1643460786997,14972.4716429,42
1643460786997,14972.4716466,78
1643460786997,14972.4716518,104
1643460786997,14972.4716557,80
1643460786997,14972.4716588,66
1643460787029,14972.4716653,56
1643460787029,14972.4716684,104
1643460787029,14972.4716735,163
1643460787029,14972.4716766,170
1643460787029,14972.4716818,210
1643460787029,14972.4716849,234
1643460787029,14972.47169,144
1643460787029,14972.8718202,118
1643460787029,14972.8718335,189
1643460787029,14972.8718386,115
1643460787064,14972.871843,14
1643460787064,14972.8718461,54
1643460787064,14972.8718491,89
1643460787064,14972.8718521,21
1643460787064,14972.8718559,-87
1643460787064,14972.8718592,-127
1643460787064,14972.8718635,-54
1643460787064,14972.8718667,18
1643460787064,14972.8718698,2
1643460787064,14972.8718727,-35
1643460787095,14972.8718757,-26
1643460787095,14972.8718796,-26
1643460787095,14972.8718833,-89
1643460787095,14972.8718874,-115
1643460787095,14972.8718906,-52
1643460787095,14972.8718959,14
1643460787095,14972.8718992,-11
1643460787095,14972.8719024,-47
1643460787095,14972.8719065,-23
1643460787095,14972.8719097,-33
1643460787130,14972.8719138,-47
1643460787130,14972.871917,-16
1643460787130,14972.8719219,-11
1643460787130,14972.8719249,-16
1643460787130,14972.871929,-18
1643460787130,14972.8719339,-30
1643460787130,14972.8719387,7
1643460787130,14972.8719436,33
1643460787130,14972.871948,26
1643460787130,14972.8719527,26
1643460787162,14972.8719559,-61
1643460787162,14972.871961,-127
1643460787162,14972.8719641,-14
1643460787162,14972.8719691,75
1643460787469,14972.8719724,-59
1643460787469,14972.8719756,-198
1643460787469,14972.8719786,-70
1643460787469,14972.8719815,42
1643460787469,14972.8719844,-66
1643460787469,14972.8719873,-96
1643460787469,14972.8719934,-52
1643460787469,14972.8719965,-30
1643460787469,14972.8719995,276
1643460787469,14972.8720025,706
1643460787493,14972.8720054,728
1643460787493,14972.8720084,243
1643460787493,14972.8720113,-262
1643460787493,14972.8720338,-257
1643460787493,14972.8720577,-4
1643460787493,14972.8720656,14
1643460787493,14972.8720692,-108
1643460787493,14972.8720724,-87
1643460787493,14972.8720754,42
1643460787493,14972.8720783,-7
1643460787518,14972.8720813,-182
1643460787518,14972.8720842,-89
1643460787518,14972.8720871,113
1643460787518,14972.87209,35
1643460787518,14972.872093,-56
1643460787518,14972.8720959,82
1643460787518,14972.8720988,127
1643460787518,14972.8721017,23
1643460787518,14972.8721047,16
1643460787518,14972.8721076,28
1643460787541,14972.8721105,-9
1643460787541,14972.8721134,2
1643460787541,14972.8721164,21
1643460787541,14972.8721193,70
1643460787541,14972.8721222,163
1643460787541,14972.8721251,174
1643460787541,14973.4217246,111
1643460787541,14973.4217359,104
1643460787541,14973.4217395,174
1643460787541,14973.4217425,224
1643460787564,14973.4217454,210
1643460787564,14973.4217482,226
1643460787564,14973.421751,245
1643460787564,14973.421754,231
1643460787564,14973.4217568,160
1643460787564,14973.4217596,-2
1643460787564,14973.4217624,-42
1643460787564,14973.4217654,44
1643460787564,14973.4217682,11
1643460787564,14973.421771,-89
1643460787588,14973.421774,-85
1643460787588,14973.4217768,-33
1643460787588,14973.42178,-59
1643460787588,14973.4217828,-113
1643460787588,14973.4217856,-106
1643460787588,14973.4217886,-75
1643460787588,14973.4217914,-94
1643460787588,14973.4217942,-144
1643460787588,14973.421797,-82
1643460787588,14973.4217998,2
1643460787613,14973.4218026,-99
1643460787613,14973.4218054,-172
1643460787613,14973.4218082,-144
1643460787613,14973.421811,-160
1643460787613,14973.4218138,-59
1643460787613,14973.4218169,26
1643460787613,14973.4218197,-146
1643460787613,14973.4218225,-260
1643460787613,14973.4218253,-177
1643460787613,14973.4218282,-23
1643460787640,14973.4218311,122
1643460787640,14973.4218396,44
1643460787640,14973.4218425,-137
1643460787640,14973.4218454,-113
1643460788085,14973.4218483,-2
1643460788085,14973.4218512,52
1643460788085,14973.4218541,44
1643460788085,14973.421857,-56
1643460788085,14973.4218602,-49
1643460788085,14973.4218633,94
1643460788085,14973.4218661,92
1643460788085,14973.4218691,-42
1643460788085,14973.4218718,-134
1643460788085,14973.4218752,-92
1643460788118,14973.4218781,115
1643460788118,14973.421881,179
1643460788118,14973.4218838,-52
1643460788118,14973.4218866,-113
1643460788118,14973.4218896,148
1643460788118,14973.4218924,463
1643460788118,14973.4218952,706
1643460788118,14973.4218983,640
1643460788118,14973.4219012,245
1643460788118,14973.4219041,-42
1643460788150,14973.4219069,-132
1643460788150,14973.4219098,-170
1643460788150,14973.4219133,-44
1643460788150,14973.4219161,92
1643460788150,14973.421919,-59
1643460788150,14973.4219223,-200
1643460788150,14973.4219252,-26
1643460788150,14973.4219279,144
1643460788150,14973.4219312,122
1643460788150,14973.4219343,7
1643460788185,14973.4219372,-106
1643460788185,14973.4219401,-14
1643460788185,14973.421943,170
1643460788185,14973.4219459,54
1643460788185,14973.4219491,-132
1643460788185,14974.0227138,9
1643460788185,14974.0227294,120
1643460788185,14974.0227332,2
1643460788185,14974.0227389,16
1643460788185,14974.0227421,113
1643460788218,14974.0227453,80
1643460788218,14974.022751,35
1643460788218,14974.0227542,54
1643460788218,14974.0227573,80
1643460788218,14974.0227604,99
1643460788218,14974.0227635,137
1643460788218,14974.0227667,156
1643460788218,14974.0227705,141
1643460788218,14974.0227761,153
1643460788218,14974.0227794,137
1643460788253,14974.0227845,42
1643460788253,14974.0227879,-9
1643460788253,14974.0227929,30
1643460788253,14974.0227962,49
1643460788253,14974.0228014,28
1643460788253,14974.0228047,-14
1643460788253,14974.02281,-66
1643460788253,14974.0228132,-37
1643460788253,14974.0228183,7
1643460788253,14974.0228215,-66
1643460788285,14974.0228267,-160
1643460788285,14974.02283,-115
1643460788285,14974.022835,-11
1643460788285,14974.0228387,-30
1643460788285,14974.0228436,-130
1643460788285,14974.022849,-96
1643460788285,14974.0228522,26
1643460788285,14974.0228568,52
1643460788285,14974.02286,9
1643460788285,14974.022864,-16
1643460788320,14974.022867,-18
1643460788320,14974.02287,-33
1643460788320,14974.0228731,-139
1643460788320,14974.0228761,-205
1643460788651,14974.0228791,-92
1643460788651,14974.0228822,-14
1643460788651,14974.0228851,-44
1643460788651,14974.0228881,-63
1643460788651,14974.0228911,-56
1643460788651,14974.022894,2
1643460788651,14974.022897,85
1643460788651,14974.0228999,21
1643460788651,14974.0229029,-87
1643460788651,14974.0229059,-47
1643460788684,14974.0229088,11
1643460788684,14974.0229117,-23
1643460788684,14974.0229146,-49
1643460788684,14974.0229175,-49
1643460788684,14974.0229205,-18
1643460788684,14974.0229235,23
1643460788684,14974.0229265,-54
1643460788684,14974.0229295,-153
1643460788684,14974.0229325,-167
1643460788684,14974.0229355,-158
1643460788728,14974.0229383,-89
1643460788728,14974.0229414,96
1643460788728,14974.0229443,404
1643460788728,14974.0229473,706
1643460788728,14974.0229502,706
1643460788728,14974.0229532,312
1643460788728,14974.0229562,-87
1643460788728,14974.0229591,-148
1643460788728,14974.022962,-21
1643460788728,14974.0229652,9
1643460788752,14974.0229681,-59
1643460788752,14974.0229711,-82
1643460788752,14974.0229742,-44
1643460788752,14974.0229772,14
1643460788752,14974.6167489,21
1643460788752,14974.6167972,-18
1643460788752,14974.6168045,37
1643460788752,14974.6168096,85
1643460788752,14974.616813,-23
1643460788752,14974.6168168,-66
1643460788784,14974.6168198,37
1643460788784,14974.6168227,52
1643460788784,14974.6168254,-18
1643460788784,14974.6168282,21
1643460788784,14974.616831,85
1643460788784,14974.616834,49
1643460788784,14974.6168369,23
1643460788784,14974.6168398,56
1643460788784,14974.6168434,63
1643460788784,14974.6168465,37
1643460788818,14974.6168494,-9
1643460788818,14974.6168522,-28
1643460788818,14974.6168562,78
1643460788818,14974.61686,193
1643460788818,14974.6168633,158
1643460788818,14974.6168685,78
1643460788818,14974.6168714,99
1643460788818,14974.6168742,172
1643460788818,14974.6168773,144
1643460788818,14974.6168802,21
1643460788841,14974.616883,-14
1643460788841,14974.616886,14
1643460788841,14974.6168911,-63
1643460788841,14974.6168942,-148
1643460788841,14974.6168973,-99
1643460788841,14974.616902,-14
1643460788841,14974.616905,-21
1643460788841,14974.616908,-70
1643460788841,14974.616911,-101
1643460788841,14974.6169139,-144
1643460788864,14974.6169169,-151
1643460788864,14974.6169199,-115
1643460788864,14974.6169228,-101
1643460788864,14974.6169257,-125
1643460789177,14974.6169287,-141
1643460789177,14974.6169316,-113
1643460789177,14974.6169343,-61
1643460789177,14974.6169371,-35
1643460789177,14974.6169398,-63
1643460789177,14974.6169435,-73
1643460789177,14974.6169463,-37
1643460789177,14974.6169492,-52
1643460789177,14974.6169519,-70
1643460789177,14974.6169547,-35
1643460789200,14974.6169574,-37
1643460789200,14974.6169602,-59
1643460789200,14974.616963,-37
1643460789200,14974.6169658,-23
1643460789200,14974.6169686,-33
1643460789200,14974.6169714,-35
1643460789200,14974.6169745,-14
1643460789200,14974.6169776,-14
1643460789200,14974.6169804,-101
1643460789200,14974.6169832,-186
1643460789223,14974.6169859,-122
1643460789223,14974.6169891,-73
1643460789223,14974.6169919,-160
1643460789223,14974.6169955,-193
1643460789223,14974.6169982,-193
1643460789223,14974.617001,-267
1643460789223,14974.6170038,-146
1643460789223,14974.6170065,200
1643460789223,14974.6170094,406
1643460789223,14974.6170121,423
1643460789254,14974.617015,255
1643460789254,14974.6170178,-113
1643460789254,14974.6170206,-196
1643460789254,14975.1217628,28
1643460789254,14975.121775,-63
1643460789254,14975.1218279,-243
1643460789254,14975.1218381,-89
1643460789254,14975.1218417,-4
1643460789254,14975.1218468,-106
1643460789254,14975.1218514,4
1643460789279,14975.1218563,118
1643460789279,14975.1218611,-130
1643460789279,14975.1218663,-300
1643460789279,14975.1218699,-49
1643460789279,14975.1218749,113
1643460789279,14975.1218789,-47
1643460789279,14975.1218821,-160
1643460789279,14975.1218863,-137
1643460789279,14975.1218895,-21
1643460789279,14975.1218936,73
1643460789301,14975.1218968,16
1643460789301,14975.1219017,-35
1643460789301,14975.1219047,44
1643460789301,14975.1219078,73
1643460789301,14975.1219119,-73
1643460789301,14975.121915,-139
1643460789301,14975.1219189,37
1643460789301,14975.1219221,184
1643460789301,14975.1219252,113
1643460789301,14975.1219284,87
1643460789324,14975.121933,217
1643460789324,14975.1219362,229
1643460789324,14975.1219413,104
1643460789324,14975.1219444,40
1643460789324,14975.1219484,26
1643460789324,14975.1219516,30
1643460789324,14975.1219566,37
1643460789324,14975.1219596,7
1643460789324,14975.1219627,2
1643460789324,14975.1219676,-4
1643460789348,14975.1219706,-101
1643460789348,14975.1219737,-160
1643460789348,14975.1219789,-108
1643460789348,14975.1219821,-56
1643460789727,14975.121987,-7
1643460789727,14975.1219901,37
1643460789727,14975.1219931,-9
1643460789727,14975.1219962,-85
1643460789727,14975.1219991,-59
1643460789727,14975.122002,-2
1643460789727,14975.1220049,-33
1643460789727,14975.1220079,-68
1643460789727,14975.1220107,-44
1643460789727,14975.1220136,-21
1643460789761,14975.1220165,-28
1643460789761,14975.1220194,-37
1643460789761,14975.1220223,-49
1643460789761,14975.1220252,-23
1643460789761,14975.1220282,59
1643460789761,14975.1220311,78
1643460789761,14975.122034,28
1643460789761,14975.1220371,35
1643460789761,14975.1220421,61
1643460789761,14975.1220451,35
1643460789795,14975.1220482,-54
1643460789795,14975.1220526,-146
1643460789795,14975.1220557,-59
1643460789795,14975.1220607,85
1643460789795,14975.1220655,35
1643460789795,14975.1220704,-54
1643460789795,14975.1220744,-11
1643460789795,14975.1220784,11
1643460789795,14975.1220816,-66
1643460789795,14975.1220865,-106
1643460789830,14975.1220912,37
1643460789830,14975.1220954,366
1643460789830,14975.6723467,666
1643460789830,14975.6723593,661
1643460789830,14975.672364,304
1643460789830,14975.6723693,-18
1643460789830,14975.6723723,11
1643460789830,14975.6723753,94
1643460789830,14975.6723793,7
1643460789830,14975.6723834,-54
1643460789861,14975.6723865,-21
1643460789861,14975.6723913,44
1643460789861,14975.6723942,35
1643460789861,14975.6723973,-68
1643460789861,14975.6724022,-30
1643460789861,14975.6724071,37
1643460789861,14975.6724119,-130
1643460789861,14975.6724148,-196
1643460789861,14975.6724179,-28
1643460789861,14975.6724219,23
1643460789895,14975.672425,-18
1643460789895,14975.6724289,-11
1643460789895,14975.6724319,11
1643460789895,14975.6724368,21
1643460789895,14975.6724397,-4
1643460789895,14975.6724427,16
1643460789895,14975.6724457,101
1643460789895,14975.6724487,70
1643460789895,14975.6724517,28
1643460789895,14975.6724547,125
1643460789927,14975.6724576,160
1643460789927,14975.6724606,73
1643460789927,14975.6724655,59
1643460789927,14975.6724684,99
1643460789927,14975.6724714,106
1643460789927,14975.6724743,137
1643460789927,14975.6724773,179
1643460789927,14975.6724802,141
1643460789927,14975.6724831,35
1643460789927,14975.6724861,-7
1643460789961,14975.672489,28
1643460789961,14975.6724921,37
1643460789961,14975.6724969,2
1643460789961,14975.6725015,-37
1643460790309,14975.6725053,-47
1643460790309,14975.6725083,-14
1643460790309,14975.6725111,-26
1643460790309,14975.672514,-111
1643460790309,14975.6725168,-134
1643460790309,14975.6725196,-75
1643460790309,14975.6725224,-44
1643460790309,14975.6725252,-16
1643460790309,14975.672528,35
1643460790309,14975.6725308,0
1643460790332,14975.6725336,-87
1643460790332,14975.6725364,-75
1643460790332,14975.67254,-47
1643460790332,14975.672544,-73
1643460790332,14975.6725469,-63
1643460790332,14975.6725499,-28
1643460790332,14975.6725528,-26
1643460790332,14975.6725558,4
1643460790332,14975.6725588,66
1643460790332,14975.6725617,11
1643460790376,14975.6725647,-52
1643460790376,14975.6725676,9
1643460790376,14975.6725706,26
1643460790376,14975.6725736,-54
1643460790376,14975.6725765,-111
1643460790376,14975.6725807,-87
1643460790376,14975.6725836,-16
1643460790376,14975.6725867,9
1643460790376,14975.6725907,-18
1643460790376,14975.6725936,-28
1643460790399,14975.6725966,-30
1643460790399,14976.267583,-59
1643460790399,14976.2675953,-21
1643460790399,14976.2675996,271
1643460790399,14976.2676049,664
1643460790399,14976.2676101,669
1643460790399,14976.2676149,212
1643460790399,14976.2676187,-87
1643460790399,14976.2676234,68
1643460790399,14976.267627,68
1643460790423,14976.2676317,-215
1643460790423,14976.2676363,-260
1643460790423,14976.2676412,-92
1643460790423,14976.2676441,7
1643460790423,14976.2676472,-30
1643460790423,14976.267652,-127
1643460790423,14976.2676567,-78
1643460790423,14976.2676617,104
1643460790423,14976.2676648,70
1643460790423,14976.2676697,-139
1643460790448,14976.2676743,-141
1643460790448,14976.267679,-18
1643460790448,14976.2676822,30
1643460790448,14976.2676862,54
1643460790448,14976.2676892,14
1643460790448,14976.2676933,-2
1643460790448,14976.2676964,141
1643460790448,14976.267701,196
1643460790448,14976.2677049,42
1643460790448,14976.2677099,-59
1643460790471,14976.2677146,52
1643460790471,14976.2677194,229
1643460790471,14976.2677241,200
1643460790471,14976.2677288,73
1643460790471,14976.2677323,122
1643460790471,14976.267737,222
1643460790471,14976.2677401,196
1643460790471,14976.2677432,193
1643460790471,14976.2677489,236
1643460790471,14976.2677527,153
1643460790494,14976.2677558,113
1643460790494,14976.2677608,189
1643460790494,14976.2677641,146
1643460790494,14976.2677671,66
1643460790821,14976.2677711,56
1643460790821,14976.2677743,0
1643460790821,14976.2677772,-49
1643460790821,14976.2677801,-28
1643460790821,14976.267783,-9
1643460790821,14976.2677858,26
1643460790821,14976.2677887,78
1643460790821,14976.2677916,54
1643460790821,14976.2677944,4
1643460790821,14976.2677973,37
1643460790845,14976.2678001,75
1643460790845,14976.2678029,14
1643460790845,14976.2678058,-56
1643460790845,14976.2678086,9
1643460790845,14976.2678114,73
1643460790845,14976.2678142,-54
1643460790845,14976.2678176,-156
1643460790845,14976.2678206,-73
1643460790845,14976.2678236,35
1643460790845,14976.2678266,78
1643460790870,14976.2678319,68
1643460790870,14976.2678358,14
1643460790870,14976.2678388,-52
1643460790870,14976.2678419,-7
1643460790870,14976.2678449,118
1643460790870,14976.2678485,30
1643460790870,14976.2678515,-160
1643460790870,14976.2678554,-42
1643460790870,14976.2678585,172
1643460790870,14976.2678643,108
1643460790895,14976.772469,-66
1643460790895,14976.772481,-120
1643460790895,14976.7724846,-165
1643460790895,14976.7724878,-113
1643460790895,14976.772493,297
1643460790895,14976.7724969,744
1643460790895,14976.7725018,742
1643460790895,14976.7725089,345
1643460790895,14976.7725139,-28
1643460790895,14976.7725169,-111
1643460790921,14976.7725197,-111
1643460790921,14976.7725234,-156
1643460790921,14976.7725286,-89
1643460790921,14976.7725317,-18
1643460790921,14976.7725365,-85
1643460790921,14976.7725395,-104
1643460790921,14976.7725445,-16
1643460790921,14976.7725475,-4
1643460790921,14976.7725505,-70
1643460790921,14976.7725536,-89
1643460790947,14976.7725589,-70
1643460790947,14976.772562,-59
1643460790947,14976.7725669,-35
1643460790947,14976.77257,21
1643460790947,14976.7725749,33
1643460790947,14976.772578,-18
1643460790947,14976.7725832,-44
1643460790947,14976.7725862,2
1643460790947,14976.7725916,73
1643460790947,14976.7725947,75
1643460790976,14976.7725994,16
1643460790976,14976.7726025,26
1643460790976,14976.7726073,94
1643460790976,14976.7726104,127
1643460790976,14976.7726152,167
1643460790976,14976.7726182,203
1643460790976,14976.7726212,146
1643460790976,14976.7726242,56
1643460790976,14976.7726271,49
1643460790976,14976.7726301,156
1643460791009,14976.772633,248
1643460791009,14976.772636,130
1643460791009,14976.7726389,-70
1643460791009,14976.772644,-73
1643460791373,14976.7726469,-2
1643460791373,14976.7726498,-33
1643460791373,14976.7726527,-16
1643460791373,14976.7726554,54
1643460791373,14976.7726583,7
1643460791373,14976.7726612,-127
1643460791373,14976.772664,-186
1643460791373,14976.7726668,-130
1643460791373,14976.7726695,-9
1643460791373,14976.7726723,42
1643460791405,14976.7726751,-63
1643460791405,14976.7726778,-118
1643460791405,14976.7726806,-18
1643460791405,14976.7726833,-14
1643460791405,14976.7726863,-151
1643460791405,14976.772689,-189
1643460791405,14976.7726921,-125
1643460791405,14976.7726949,-40
1643460791405,14976.7726979,75
1643460791405,14976.7727009,82
1643460791439,14976.7727039,-68
1643460791439,14976.7727068,-174
1643460791439,14976.7727098,-59
1643460791439,14976.7727128,122
1643460791439,14976.7727161,61
1643460791439,14976.772721,-139
1643460791439,14976.772724,-87
1643460791439,14976.7727287,92
1643460791439,14976.7727317,-82
1643460791439,14977.3216086,-250
1643460791472,14977.3216227,4
1643460791472,14977.3216265,56
1643460791472,14977.3216317,-193
1643460791472,14977.3216354,-122
1643460791472,14977.3216406,200
1643460791472,14977.3216438,420
1643460791472,14977.3216487,572
1643460791472,14977.3216606,479
1643460791472,14977.3216659,75
1643460791472,14977.3216693,-115
1643460791505,14977.3216741,-49
1643460791505,14977.3216774,-40
1643460791505,14977.3217016,-59
1643460791505,14977.3217101,-99
1643460791505,14977.3217136,-115
1643460791505,14977.3217188,-59
1643460791505,14977.3217221,-33
1643460791505,14977.3217271,-56
1643460791505,14977.3217303,-63
1643460791505,14977.3217353,-85
1643460791538,14977.3217385,-137
1643460791538,14977.3217434,-70
1643460791538,14977.3217468,66
1643460791538,14977.3217518,2
1643460791538,14977.321755,-118
1643460791538,14977.3217658,-14
1643460791538,14977.3219371,56
1643460791538,14977.3219526,-61
1643460791538,14977.3219588,-89
1643460791538,14977.3219623,-16
1643460791572,14977.3219673,33
1643460791572,14977.3219707,75
1643460791572,14977.3219755,40
1643460791572,14977.3219788,-30
1643460791572,14977.3219836,59
1643460791572,14977.3219868,163
1643460791572,14977.3219917,113
1643460791572,14977.3219949,96
1643460791572,14977.3219997,156
1643460791572,14977.3220031,108
1643460791606,14977.322008,33
1643460791606,14977.3220111,78
1643460791606,14977.322016,94
1643460791606,14977.3220192,47
1643460792020,14977.322024,63
1643460792020,14977.322027,21
1643460792020,14977.32203,-113
1643460792020,14977.3220329,-111
1643460792020,14977.3220358,-4
1643460792020,14977.3220388,7
1643460792020,14977.3220417,-70
1643460792020,14977.3220446,-125
1643460792020,14977.3220475,-108
1643460792020,14977.3220503,-44
1643460792044,14977.3220532,33
1643460792044,14977.3220561,23
1643460792044,14977.3220589,-63
1643460792044,14977.3220618,-21
1643460792044,14977.3220646,85
1643460792044,14977.3220675,23
1643460792044,14977.3220703,-96
1643460792044,14977.3220732,-66
1643460792044,14977.322076,54
1643460792044,14977.3220788,92
1643460792074,14977.3220816,23
1643460792074,14977.3220845,37
1643460792074,14977.3220873,127
1643460792074,14977.3220902,52
1643460792074,14977.322093,-96
1643460792074,14977.3220959,-94
1643460792074,14977.3220988,28
1643460792074,14977.3221016,139
1643460792074,14977.9671763,80
1643460792074,14977.9671891,-66
1643460792108,14977.9671942,-68
1643460792108,14977.9671996,-44
1643460792108,14977.9672027,-141
1643460792108,14977.9672076,-231
1643460792108,14977.9672107,-132
1643460792108,14977.9672138,281
1643460792108,14977.9672185,706
1643460792108,14977.9672214,647
1643460792108,14977.9672244,191
1643460792108,14977.9672274,-174
1643460792131,14977.9672314,-198
1643460792131,14977.9672344,-89
1643460792131,14977.9672374,-89
1643460792131,14977.9672403,-134
1643460792131,14977.9672433,-85
1643460792131,14977.9672464,21
1643460792131,14977.9672512,47
1643460792131,14977.9672541,-59
1643460792131,14977.9672571,-196
1643460792131,14977.967262,-160
1643460792154,14977.9672668,-7
1643460792154,14977.9672707,63
1643460792154,14977.9672738,40
1643460792154,14977.9672778,-92
1643460792154,14977.9672808,-257
1643460792154,14977.9672857,-189
1643460792154,14977.9672886,16
1643460792154,14977.9672916,33
1643460792154,14977.9672946,-68
1643460792154,14977.9672995,-40
1643460792177,14977.9673036,42
1643460792177,14977.9673076,47
1643460792177,14977.9673106,70
1643460792177,14977.9673135,111
1643460792177,14977.9673188,61
1643460792177,14977.9673218,16
1643460792177,14977.9673265,94
1643460792177,14977.9673303,137
1643460792177,14977.9673351,30
1643460792177,14977.9673379,-4
1643460792201,14977.9673409,73
1643460792201,14977.9673449,89
1643460792201,14977.9673479,63
1643460792201,14977.9673527,35
1643460792523,14977.9673573,-9
1643460792523,14977.9673602,-7
1643460792523,14977.967363,63
1643460792523,14977.9673658,61
1643460792523,14977.9673685,-75
1643460792523,14977.9673713,-101
1643460792523,14977.9673741,104
1643460792523,14977.9673769,182
1643460792523,14977.9673796,-4
1643460792523,14977.9673824,-130
1643460792548,14977.9673852,-156
1643460792548,14977.967388,-208
1643460792548,14977.9673908,-165
1643460792548,14977.9673937,-59
1643460792548,14977.9673966,-94
1643460792548,14977.9673995,-179
1643460792548,14977.9674024,-118
1643460792548,14977.9674054,-11
1643460792548,14977.9674083,37
1643460792548,14977.9674113,101
1643460792571,14977.9674158,111
1643460792571,14977.9674188,-7
1643460792571,14977.9674226,-87
1643460792571,14977.9674255,-9
1643460792571,14977.9674284,144
1643460792571,14977.9674313,203
1643460792571,14977.9674342,87
1643460792571,14978.4716707,26
1643460792571,14978.4718298,56
1643460792571,14978.4718365,7
1643460792594,14978.4718401,23
1643460792594,14978.4718433,111
1643460792594,14978.4718462,18
1643460792594,14978.4718491,-73
1643460792594,14978.4718519,134
1643460792594,14978.4718548,536
1643460792594,14978.4718577,813
1643460792594,14978.4718609,673
1643460792594,14978.4718637,234
1643460792594,14978.4718666,-2
1643460792617,14978.4718694,52
1643460792617,14978.4718722,63
1643460792617,14978.4718751,-14
1643460792617,14978.4718779,-7
1643460792617,14978.4718807,75
1643460792617,14978.471884,96
1643460792617,14978.4718893,14
1643460792617,14978.4718924,-73
1643460792617,14978.4718955,-63
1643460792617,14978.4719015,42
1643460792650,14978.4719047,156
1643460792650,14978.4719098,108
1643460792650,14978.471913,-44
1643460792650,14978.471918,-63
1643460792650,14978.4719211,33
1643460792650,14978.4719259,68
1643460792650,14978.4719292,23
1643460792650,14978.4719343,16
1643460792650,14978.4719375,66
1643460792650,14978.4719426,108
1643460792684,14978.4719458,87
1643460792684,14978.4719507,61
1643460792684,14978.4719539,101
1643460792684,14978.4719588,130
1643460792684,14978.471962,148
1643460792684,14978.471967,151
1643460792684,14978.4719702,92
1643460792684,14978.4719752,104
1643460792684,14978.4719784,182
1643460792684,14978.4719833,217
1643460792717,14978.4719865,219
1643460792717,14978.4719914,132
1643460792717,14978.4719947,-28
1643460792717,14978.4719999,-37
1643460793118,14978.472003,96
1643460793118,14978.4720059,106
1643460793118,14978.4720088,-11
1643460793118,14978.4720116,-42
1643460793118,14978.4720145,-26
1643460793118,14978.4720174,-35
1643460793118,14978.4720202,21
1643460793118,14978.4720231,106
1643460793118,14978.4720259,26
1643460793118,14978.4720288,-104
1643460793150,14978.4720317,-42
1643460793150,14978.4720345,47
1643460793150,14978.4720374,23
1643460793150,14978.4720402,44
1643460793150,14978.472043,52
1643460793150,14978.4720459,-23
1643460793150,14978.4720488,-7
1643460793150,14978.4720517,66
1643460793150,14978.4720545,78
1643460793150,14978.4720573,54
1643460793184,14978.4720601,7
1643460793184,14978.472063,-16
1643460793184,14978.4720668,21
1643460793184,14978.4720698,47
1643460793184,14978.472075,35
1643460793184,14978.4720779,37
1643460793184,14979.0668374,49
1643460793184,14979.066854,28
1643460793184,14979.0668602,-16
1643460793184,14979.0668644,23
1643460793217,14979.0668695,96
1643460793217,14979.0668726,7
1643460793217,14979.0668767,-125
1643460793217,14979.0668801,-80
1643460793217,14979.0668989,130
1643460793217,14979.0669044,432
1643460793217,14979.0669086,628
1643460793217,14979.0669116,425
1643460793217,14979.0669159,-14
1643460793217,14979.0669193,-151
1643460793251,14979.0669222,-52
1643460793251,14979.066925,-49
1643460793251,14979.0669283,-68
1643460793251,14979.0669316,-44
1643460793251,14979.0669352,-47
1643460793251,14979.0669382,-40
1643460793251,14979.0669438,11
1643460793251,14979.0669469,30
1643460793251,14979.0669517,-49
1643460793251,14979.0669548,-96
1643460793283,14979.0669596,-33
1643460793283,14979.0669627,26
1643460793283,14979.0669664,42
1643460793283,14979.0669698,44
1643460793283,14979.0669746,9
1643460793283,14979.066978,-42
1643460793283,14979.0669827,-30
1643460793283,14979.0669858,40
1643460793283,14979.0669904,68
1643460793283,14979.0669934,59
1643460793317,14979.0669985,87
1643460793317,14979.0670016,104
1643460793317,14979.0670055,54
1643460793317,14979.0670084,66
1643460793317,14979.0670112,132
1643460793317,14979.0670139,120
1643460793317,14979.0670166,96
1643460793317,14979.0670193,122
1643460793317,14979.067022,125
1643460793317,14979.0670246,163
1643460793351,14979.0670273,212
1643460793351,14979.0670301,122
1643460793351,14979.0670328,9
1643460793351,14979.0670355,30
1643460793754,14979.0670382,59
1643460793754,14979.0670409,16
1643460793754,14979.0670449,-49
1643460793754,14979.0670478,-160
1643460793754,14979.0670506,-212
1643460793754,14979.0670534,-113
1643460793754,14979.067056,-63
1643460793754,14979.0670587,-101
1643460793754,14979.0670615,-33
1643460793754,14979.0670642,30
1643460793785,14979.067067,-78
1643460793785,14979.0670697,-170
1643460793785,14979.0670724,-96
1643460793785,14979.0670752,28
1643460793785,14979.0670779,35
1643460793785,14979.0670806,-56
1643460793785,14979.0670833,-99
1643460793785,14979.067086,-85
1643460793785,14979.0670888,-47
1643460793785,14979.0670921,26
1643460793821,14979.0670948,7
1643460793821,14979.0670978,-80
1643460793821,14979.0671007,-70
1643460793821,14979.0671064,-26
1643460793821,14979.0671103,-21
1643460793821,14979.718233,-11
1643460793821,14979.7182461,-14
1643460793821,14979.718251,-35
1643460793821,14979.7182565,-35
1643460793821,14979.7182605,-44
1643460793845,14979.7182656,-75
1643460793845,14979.7182701,-94
1643460793845,14979.7182742,-139
1643460793845,14979.7182773,-189
1643460793845,14979.7182814,-70
1643460793845,14979.7182872,300
1643460793845,14979.718292,652
1643460793845,14979.7182969,659
1643460793845,14979.7183019,271
1643460793845,14979.718307,-148
1643460793869,14979.7183108,-186
1643460793869,14979.718315,-52
1643460793869,14979.7183181,-54
1643460793869,14979.7183221,-106
1643460793869,14979.7183272,-132
1643460793869,14979.7183318,-172
1643460793869,14979.7183368,-191
1643460793869,14979.7183412,-165
1643460793869,14979.7183462,-153
1643460793869,14979.7183492,-139
1643460793899,14979.7183522,-118
1643460793899,14979.7183573,-122
1643460793899,14979.7183603,-104
1643460793899,14979.7183633,-68
1643460793899,14979.7183682,-82
1643460793899,14979.7183712,-104
1643460793899,14979.7183743,-56
1643460793899,14979.7183786,2
1643460793899,14979.7183836,-4
1643460793899,14979.7183885,-73
1643460793923,14979.7183935,-94
1643460793923,14979.7183975,-18
1643460793923,14979.7184024,40
1643460793923,14979.7184055,56
1643460793923,14979.7184086,106
1643460793923,14979.7184124,80
1643460793923,14979.7184173,-23
1643460793923,14979.7184203,47
1643460793923,14979.7184233,215
1643460793923,14979.7184264,203
1643460793947,14979.7184315,59
1643460793947,14979.7184345,14
1643460793947,14979.7184376,28
1643460793947,14979.7184407,-70
1643460794206,14979.7184459,-122
1643460794206,14979.7184497,-54
1643460794206,14979.7184527,-52
1643460794206,14979.7184556,-68
1643460794206,14979.7184586,-47
1643460794206,14979.7184615,-47
1643460794206,14979.7184647,-70
1643460794206,14979.7184676,-139
1643460794206,14979.7184705,-172
1643460794206,14979.7184733,-80
1643460794230,14979.7184762,-26
1643460794230,14979.718479,-87
1643460794230,14979.7184819,-125
1643460794230,14979.7184848,-92
1643460794230,14979.7184877,-37
1643460794230,14979.7184905,-21
1643460794230,14979.7184935,-85
1643460794230,14979.7184967,-113
1643460794230,14979.7185016,-21
1643460794230,14979.7185046,52
1643460794253,14979.7185078,23
1643460794253,14979.7185127,-16
1643460794253,14979.7185157,-18
1643460794253,14979.7185187,-23
1643460794253,14980.1702714,-35
1643460794253,14980.1702841,11
1643460794253,14980.1702877,35
1643460794253,14980.170292,-26
1643460794253,14980.1702951,-28
1643460794253,14980.1702989,16
1643460794276,14980.170302,7
1643460794276,14980.170305,-23
1643460794276,14980.1703079,-80
1643460794276,14980.1703108,-104
1643460794276,14980.1703138,26
1643460794276,14980.1703168,288
1643460794276,14980.1703208,581
1643460794276,14980.1703237,699
1643460794276,14980.1703267,382
1643460794276,14980.1703307,-80
1643460794299,14980.1703337,-151
1643460794299,14980.1703366,-47
1643460794299,14980.1703395,-111
1643460794299,14980.1703425,-144
1643460794299,14980.170348,-87
1643460794299,14980.1703524,-75
1643460794299,14980.1703554,-85
1643460794299,14980.1703583,-80
1643460794299,14980.1703613,-70
1643460794299,14980.1703641,-75
1643460794323,14980.1703669,-70
1643460794323,14980.1703698,-23
1643460794323,14980.1703727,-11
1643460794323,14980.1703757,-28
1643460794323,14980.1703787,-37
1643460794323,14980.1703839,-28
1643460794323,14980.1703878,0
1643460794323,14980.1703929,-26
1643460794323,14980.1703959,-44
1643460794323,14980.1704007,-23
1643460794350,14980.1704037,-7
1643460794350,14980.1704069,37
1643460794350,14980.1704118,61
1643460794350,14980.1704148,21
1643460794350,14980.1704197,28
1643460794350,14980.1704226,89
1643460794350,14980.1704276,89
1643460794350,14980.1704306,59
1643460794350,14980.1704355,85
1643460794350,14980.1704385,96
1643460794385,14980.1704435,73
1643460794385,14980.1704464,94
1643460794385,14980.1704493,96
1643460794385,14980.1704522,16
1643460794951,14980.1704551,-23
1643460794951,14980.1704579,-9
1643460794951,14980.1704607,-44
1643460794951,14980.1704634,-49
1643460794951,14980.1704662,7
1643460794951,14980.1704689,-47
1643460794951,14980.1704717,-122
1643460794951,14980.1704745,-68
1643460794951,14980.1704772,-28
1643460794951,14980.17048,-61
1643460794984,14980.1704827,-70
1643460794984,14980.1704854,-47
1643460794984,14980.1704881,-4
1643460794984,14980.1704909,-7
1643460794984,14980.1704937,-61
1643460794984,14980.1704964,-28
1643460794984,14980.1704992,30
1643460794984,14980.1705019,-9
1643460794984,14980.1705051,-28
1643460794984,14980.1705081,-9
1643460795016,14980.170511,-21
1643460795016,14980.170514,2
1643460795016,14980.1705169,49
1643460795016,14980.9169085,16
1643460795016,14980.9169193,-30
1643460795016,14980.9169228,-11
1643460795016,14980.916927,-9
1643460795016,14980.9169301,-40
1643460795016,14980.9169341,-44
1643460795016,14980.9169371,-21
1643460795052,14980.9169411,2
1643460795052,14980.9169441,-18
1643460795052,14980.916948,-106
1643460795052,14980.9169511,-196
1643460795052,14980.9169549,-163
1643460795052,14980.916958,92
1643460795052,14980.9169619,479
1643460795052,14980.916965,690
1643460795052,14980.9169688,453
1643460795052,14980.9169719,14
1643460795084,14980.916976,-101
1643460795084,14980.9169791,-63
1643460795084,14980.9169829,-193
1643460795084,14980.916986,-215
1643460795084,14980.9169897,-118
1643460795084,14980.9169929,-148
1643460795084,14980.9169967,-148
1643460795084,14980.9169997,-35
1643460795084,14980.9170037,-37
1643460795084,14980.9170068,-158
1643460795117,14980.917011,-156
1643460795117,14980.9170141,-42
1643460795117,14980.9170181,-11
1643460795117,14980.9170211,-73
1643460795117,14980.917024,-85
1643460795117,14980.9170271,-40
1643460795117,14980.9170311,-42
1643460795117,14980.9170344,-44
1643460795117,14980.9170382,-14
1643460795117,14980.9170412,-26
1643460795152,14980.9170442,-33
1643460795152,14980.9170483,11
1643460795152,14980.9170513,49
1643460795152,14980.9170552,78
1643460795152,14980.9170582,75
1643460795152,14980.9170621,18
1643460795152,14980.9170651,42
1643460795152,14980.9170681,158
1643460795152,14980.9170711,174
1643460795152,14980.917074,92
1643460795183,14980.917077,96
1643460795183,14980.91708,151
1643460795183,14980.917083,137
1643460795183,14980.9170869,87
1643460795528,14980.9170899,44
1643460795528,14980.9170928,14
1643460795528,14980.9170956,-4
1643460795528,14980.9170983,2
1643460795528,14980.9171011,30
1643460795528,14980.9171041,26
1643460795528,14980.9171069,-9
1643460795528,14980.9171097,0
1643460795528,14980.9171125,59
1643460795528,14980.9171153,47
1643460795552,14980.9171181,-9
1643460795552,14980.9171209,11
1643460795552,14980.9171238,66
1643460795552,14980.9171268,78
1643460795552,14980.9171299,63
1643460795552,14980.9171329,73
1643460795552,14980.9171397,99
1643460795552,14980.9171428,104
1643460795552,14980.9171481,87
1643460795552,14980.9171511,56
1643460795575,14980.9171541,61
1643460795575,14980.917157,125
1643460795575,14981.4674783,137
1643460795575,14981.4674925,78
1643460795575,14981.467498,47
1643460795575,14981.4675032,44
1643460795575,14981.4675064,37
1643460795575,14981.4675113,85
1643460795575,14981.4675144,163
1643460795575,14981.4675173,108
1643460795609,14981.4675204,14
1643460795609,14981.4675234,59
1643460795609,14981.4675263,92
1643460795609,14981.4675292,35
1643460795609,14981.4675322,-7
1643460795609,14981.4675377,-14
1643460795609,14981.4675407,134
1643460795609,14981.4675456,522
1643460795609,14981.4675495,846
1643460795609,14981.4675546,735
1643460795631,14981.4675586,226
1643460795631,14981.4675643,-118
1643460795631,14981.4675673,-21
1643460795631,14981.467572,68
1643460795631,14981.4675751,-28
1643460795631,14981.4675799,-42
1643460795631,14981.467583,0
1643460795631,14981.4675879,-21
1643460795631,14981.467591,-28
1643460795631,14981.4675959,-7
1643460795654,14981.4675989,-7
1643460795654,14981.4676038,-9
1643460795654,14981.4676068,-9
1643460795654,14981.4676121,-21
1643460795654,14981.4676152,0
1643460795654,14981.46762,52
1643460795654,14981.4676231,63
1643460795654,14981.467628,23
1643460795654,14981.4676311,-11
1643460795654,14981.4676361,9
1643460795679,14981.4676392,61
1643460795679,14981.467644,80
1643460795679,14981.467647,47
1643460795679,14981.467652,40
1643460795679,14981.4676549,68
1643460795679,14981.4676591,111
1643460795679,14981.4676632,151
1643460795679,14981.4676682,134
1643460795679,14981.4676721,137
1643460795679,14981.4676751,144
1643460795702,14981.4676782,92
1643460795702,14981.4676823,125
1643460795702,14981.4676853,203
1643460795702,14981.4676896,125
1643460795951,14981.4676925,26
1643460795951,14981.4676954,92
1643460795951,14981.4676981,104
1643460795951,14981.4677009,-14
1643460795951,14981.4677037,-26
1643460795951,14981.4677065,0
1643460795951,14981.4677093,-82
1643460795951,14981.467712,-111
1643460795951,14981.4677149,-42
1643460795951,14981.4677177,-56
1643460795974,14981.4677205,-61
1643460795974,14981.4677232,-4
1643460795974,14981.4677261,-63
1643460795974,14981.467729,-87
1643460795974,14981.4677319,11
1643460795974,14981.4677346,-9
1643460795974,14981.4677376,-113
1643460795974,14981.4677404,-73
1643460795974,14981.4677438,18
1643460795974,14981.4677477,33
1643460795997,14981.4677507,-7
1643460795997,14981.9175808,-26
1643460795997,14981.917592,7
1643460795997,14981.9175964,7
1643460795997,14981.9176006,26
1643460795997,14981.9176038,78
1643460795997,14981.9176076,-23
1643460795997,14981.9176108,-92
1643460795997,14981.9176147,30
1643460795997,14981.9176178,59
1643460796021,14981.9176221,-9
1643460796021,14981.9176252,18
1643460796021,14981.917629,61
1643460796021,14981.9176321,40
1643460796021,14981.917636,37
1643460796021,14981.9176391,7
1643460796021,14981.917643,-106
1643460796021,14981.9176461,-75
1643460796021,14981.9176499,316
1643460796021,14981.9176531,829
1643460796045,14981.9176569,948
1643460796045,14981.91766,475
1643460796045,14981.9176639,-104
1643460796045,14981.917667,-193
1643460796045,14981.9176711,-37
1643460796045,14981.9176742,-54
1643460796045,14981.9176783,-118
1643460796045,14981.9176846,-104
1643460796045,14981.9176876,-85
1643460796045,14981.9176906,-75
1643460796068,14981.9176936,-61
1643460796068,14981.9176979,-68
1643460796068,14981.9177011,-101
1643460796068,14981.9177065,-78
1643460796068,14981.917711,-7
1643460796068,14981.917716,-11
1643460796068,14981.9177203,-49
1643460796068,14981.9177258,-26
1643460796068,14981.9177553,-2
1643460796068,14981.9177631,-11
1643460796094,14981.9177679,-44
1643460796094,14981.9177711,-54
1643460796094,14981.9177768,-7
1643460796094,14981.9177802,30
1643460796094,14981.9177852,40
1643460796094,14981.9177899,70
1643460796094,14981.9177948,87
1643460796094,14981.9177978,82
1643460796094,14981.9178016,73
1643460796094,14981.9178047,68
1643460796128,14981.9178102,104
1643460796128,14981.9178134,108
1643460796128,14981.9178182,47
1643460796128,14981.9178211,85
1643460796860,14981.9178242,189
1643460796860,14981.9178273,139
1643460796860,14981.9178301,52
1643460796860,14981.9178329,40
1643460796860,14981.9178359,-33
1643460796860,14981.9178387,-92
1643460796860,14981.9178415,-92
1643460796860,14981.9178443,-89
1643460796860,14981.9178472,-44
1643460796860,14981.9178612,-16
1643460796894,14981.9178752,-47
1643460796894,14981.9178822,-59
1643460796894,14981.9178857,-54
1643460796894,14981.9178908,-66
1643460796894,14981.9178939,-52
1643460796894,14981.9178971,-30
1643460796894,14981.9179002,-47
1643460796894,14981.9179046,-70
1643460796894,14981.9179076,-73
1643460796894,14981.9179263,-26
1643460796927,14982.8160654,14
1643460796927,14982.816077,-4
1643460796927,14982.816082,-9
1643460796927,14982.8160864,-9
1643460796927,14982.8160893,-44
1643460796927,14982.816092,-28
1643460796927,14982.8160948,7
1643460796927,14982.8160977,-42
1643460796927,14982.8161007,-52
1643460796927,14982.8161042,16
1643460796961,14982.8161072,9
1643460796961,14982.8161111,-52
1643460796961,14982.8161141,-70
1643460796961,14982.8161179,-70
1643460796961,14982.8161208,-56
1643460796961,14982.8161237,-63
1643460796961,14982.816127,-139
1643460796961,14982.8161297,-186
1643460796961,14982.8161325,-115
1643460796961,14982.8161352,106
1643460796995,14982.8161382,460
1643460796995,14982.8161949,754
1643460796995,14982.8162002,576
1643460796995,14982.8162035,-44
1643460796995,14982.8162064,-330
1643460796995,14982.8162092,-120
1643460796995,14982.8162119,-33
1643460796995,14982.8162146,-127
1643460796995,14982.8162174,-108
1643460796995,14982.8162201,-52
1643460797029,14982.8162228,-63
1643460797029,14982.8162256,-70
1643460797029,14982.8162284,-49
1643460797029,14982.8162312,-47
1643460797029,14982.816234,-40
1643460797029,14982.8162367,-26
1643460797029,14982.8162394,-14
1643460797029,14982.8162421,-16
1643460797029,14982.8162449,-30
1643460797029,14982.8162476,-33
1643460797062,14982.8162504,-21
1643460797062,14982.8162531,-14
1643460797062,14982.8162558,9
1643460797062,14982.8162585,21
1643460797062,14982.8162613,-2
1643460797062,14982.816264,0
1643460797062,14982.8162668,26
1643460797062,14982.8162694,33
1643460797062,14982.8162722,40
1643460797062,14982.8162813,70
1643460797093,14982.8162842,87
1643460797093,14982.8162869,70
1643460797093,14982.8162896,66
1643460797093,14982.8162923,75
1643460797093,14982.816295,61
1643460797093,14982.8162977,56
1643460797093,14982.8163004,63
1643460797093,14982.8163041,52
1643460797093,14982.8163069,54
1643460797093,14982.8163096,47
1643460797126,14982.8163124,0
1643460797126,14982.8163152,-33
1643460797126,14982.8163179,-44
1643460797126,14982.8163207,-59
1643460797126,14982.8163235,-56
1643460797126,14982.8163261,-44
1643460797126,14982.8163289,-40
1643460797126,14982.8163316,-35
1643460797126,14982.8163344,-35
1643460797126,14982.8163371,-26
1643460797160,14982.8163399,-9
1643460797160,14982.8163427,-9
1643460797160,14982.8163456,-18
1643460797160,14983.0209469,-16
1643460797160,14983.0209598,7
1643460797160,14983.020964,28
1643460797160,14983.0209692,23
1643460797160,14983.0209732,-7
1643460797160,14983.0209783,-9
1643460797160,14983.0209815,14
1643460797194,14983.0209863,28
1643460797194,14983.0209907,28
1643460797194,14983.0209956,28
1643460797194,14983.0209986,14
1643460797194,14983.0210026,-9
1643460797194,14983.0210058,-16
1643460797194,14983.0210108,-7
1643460797194,14983.0210139,0
1643460797194,14983.021018,-4
1643460797194,14983.0210211,-4
1643460797227,14983.021026,9
1643460797227,14983.0210307,16
1643460797227,14983.0210357,-16
1643460797227,14983.0210388,-78
1643460797227,14983.0210436,-73
1643460797227,14983.0210483,127
1643460797227,14983.0210532,498
1643460797227,14983.0210568,787
1643460797227,14983.02106,628
1643460797227,14983.0210649,40
1643460797261,14983.0210679,-274
1643460797261,14983.0210709,-96
1643460797261,14983.0210759,4
1643460797261,14983.0210789,-75
1643460797261,14983.0210827,-70
1643460797261,14983.0210876,-30
1643460797261,14983.0210907,-47
1643460797261,14983.0210946,-59
1643460797261,14983.0210977,-44
1643460797261,14983.0211017,-44
1643460797293,14983.0211048,-59
1643460797293,14983.0211097,-56
1643460797293,14983.0211142,-35
1643460797293,14983.0211191,-26
1643460797293,14983.0211222,-28
1643460797293,14983.0211271,-18
1643460797293,14983.0211305,-18
1643460797293,14983.0211355,-28
1643460797293,14983.0211386,-21
1643460797293,14983.0211433,-2
1643460797326,14983.0211464,4
1643460797326,14983.0211516,7
1643460797326,14983.0211547,14
1643460797326,14983.0211597,30
1643460797326,14983.0211628,44
1643460797326,14983.0211669,56
1643460797326,14983.02117,73
1643460797326,14983.0211749,96
1643460797562,14983.0211794,101
1643460797562,14983.0211824,85
1643460797562,14983.0211854,94
1643460797562,14983.0211882,111
1643460797562,14983.0211911,111
1643460797562,14983.0211939,101
1643460797562,14983.0211968,94
1643460797562,14983.0211997,78
1643460797562,14983.0212026,40
1643460797562,14983.0212055,0
1643460797594,14983.0212084,-33
1643460797594,14983.0212113,-59
1643460797594,14983.0212141,-44
1643460797594,14983.021217,-23
1643460797594,14983.0212198,-23
1643460797594,14983.0212237,-11
1643460797594,14983.0212267,0
1643460797594,14983.0212308,-16
1643460797594,14983.5239344,-14
1643460797594,14983.5239471,16
1643460797628,14983.5239524,28
1643460797628,14983.5239576,23
1643460797628,14983.5239607,21
1643460797628,14983.5239646,23
1643460797628,14983.5239687,11
1643460797628,14983.5239719,0
1643460797628,14983.5239772,11
1643460797628,14983.5239801,23
1643460797628,14983.5239831,18
1643460797628,14983.5239861,14
1643460797662,14983.5239903,23
1643460797662,14983.5239933,23
1643460797662,14983.5239962,4
1643460797662,14983.5240014,-16
1643460797662,14983.5240045,-37
1643460797662,14983.5240084,-44
1643460797662,14983.5240114,-37
1643460797662,14983.5240144,-42
1643460797662,14983.5240184,-40
1643460797662,14983.5240213,-30
1643460797694,14983.5240242,-66
1643460797694,14983.5240271,-130
1643460797694,14983.5240301,-137
1643460797694,14983.5240341,16
1643460797694,14983.5240372,364
1643460797694,14983.524042,673
1643460797694,14983.5240449,562
1643460797694,14983.5240478,44
1643460797694,14983.5240507,-288
1643460797694,14983.5240536,-189
1643460797727,14983.5240565,-85
1643460797727,14983.5240593,-96
1643460797727,14983.5240622,-52
1643460797727,14983.5240651,-30
1643460797727,14983.524068,-92
1643460797727,14983.5240708,-120
1643460797727,14983.5240737,-78
1643460797727,14983.5240766,-59
1643460797727,14983.5240796,-59
1643460797727,14983.5240825,-35
1643460797761,14983.5240853,-33
1643460797761,14983.5240883,-28
1643460797761,14983.5240924,-2
1643460797761,14983.5240954,11
1643460797761,14983.5240995,9
1643460797761,14983.5241024,18
1643460797761,14983.5241054,26
1643460797761,14983.52412,26
1643460797761,14983.524139,37
1643460797761,14983.5241469,49
1643460797794,14983.5241503,61
1643460797794,14983.5241551,87
1643460797794,14983.5241581,108
1643460797794,14983.5241611,101
1643460798228,14983.524164,92
1643460798228,14983.5241668,101
1643460798228,14983.5241696,127
1643460798228,14983.5241723,153
1643460798228,14983.5241751,158
1643460798228,14983.5241779,153
1643460798228,14983.5241808,151
1643460798228,14983.5241836,137
1643460798228,14983.5241863,104
1643460798228,14983.5241891,66
1643460798260,14983.5241919,33
1643460798260,14983.5241947,9
1643460798260,14983.5241976,-9
1643460798260,14983.5242004,-26
1643460798260,14983.5242031,-26
1643460798260,14983.524206,4
1643460798260,14983.524209,11
1643460798260,14984.1724812,-21
1643460798260,14984.172496,-26
1643460798260,14984.1725009,16
1643460798294,14984.1725063,35
1643460798294,14984.1725095,18
1643460798294,14984.1725144,11
1643460798294,14984.1725176,16
1643460798294,14984.1725225,2
1643460798294,14984.1725262,-33
1643460798294,14984.1725309,-66
1643460798294,14984.1725339,-80
1643460798294,14984.1725388,-68
1643460798294,14984.1725418,-47
1643460798327,14984.1725449,-37
1643460798327,14984.1725493,-33
1643460798327,14984.1725525,-23
1643460798327,14984.1725574,-26
1643460798327,14984.1725618,-42
1643460798327,14984.1725667,-44
1643460798327,14984.1725714,-44
1643460798327,14984.1725766,-44
1643460798327,14984.1725797,-37
1643460798327,14984.1725845,-30
1643460798374,14984.1725891,-11
1643460798374,14984.1725938,-4
1643460798374,14984.1725968,-49
1643460798374,14984.1725998,-111
1643460798374,14984.1726046,-144
1643460798374,14984.1726093,-61
1643460798374,14984.1726148,293
1643460798374,14984.1726179,725
1643460798374,14984.1726235,751
1643460798374,14984.1726266,271
1643460798396,14984.1726319,-179
1643460798396,14984.1726359,-172
1643460798396,14984.1726408,-52
1643460798396,14984.1726439,-87
1643460798396,14984.1727007,-87
1643460798396,14984.1727092,-42
1643460798396,14984.1727144,-35
1643460798396,14984.1727177,-30
1643460798396,14984.1727224,-14
1643460798396,14984.1727269,-11
1643460798428,14984.1727318,-7
1643460798428,14984.1727351,7
1643460798428,14984.1727401,7
1643460798428,14984.1727441,-2
1643460798428,14984.1727493,2
1643460798428,14984.1727523,4
1643460798428,14984.172756,7
1643460798428,14984.1727623,16
1643460798428,14984.1727654,28
1643460798428,14984.1727696,35
1643460798461,14984.1727727,40
1643460798461,14984.1727778,44
1643460798461,14984.1727807,44
1643460798461,14984.1727838,59
1643460798728,14984.1727886,80
1643460798728,14984.1727925,80
1643460798728,14984.1727955,82
1643460798728,14984.1727983,104
1643460798728,14984.1728011,120
1643460798728,14984.1728039,130
1643460798728,14984.1728068,144
1643460798728,14984.1728096,134
1643460798728,14984.1728125,115
1643460798728,14984.1728153,118
1643460798760,14984.1728182,113
1643460798760,14984.1728211,80
1643460798760,14984.1728248,42
1643460798760,14984.1728302,9
1643460798760,14984.1728333,-4
1643460798760,14984.1728375,-7
1643460798760,14984.6717304,-2
1643460798760,14984.6717491,0
1643460798760,14984.6717559,-4
1643460798760,14984.6717591,-7
1643460798795,14984.6717632,16
1643460798795,14984.6717662,30
1643460798795,14984.6717691,7
1643460798795,14984.671772,-16
1643460798795,14984.6717749,-2
1643460798795,14984.6717778,23
1643460798795,14984.6717807,23
1643460798795,14984.6717837,7
1643460798795,14984.6717866,-4
1643460798795,14984.6717894,-4
1643460798827,14984.6717923,-7
1643460798827,14984.6717952,-2
1643460798827,14984.6717982,4
1643460798827,14984.6718012,4
1643460798827,14984.671806,-2
1643460798827,14984.6718089,-23
1643460798827,14984.6718119,-59
1643460798827,14984.6718147,-66
1643460798827,14984.6718176,-44
1643460798827,14984.6718214,-40
1643460798861,14984.6718259,-54
1643460798861,14984.6718289,-61
1643460798861,14984.6718318,-49
1643460798861,14984.6718347,-49
1643460798861,14984.6718375,-92
1643460798861,14984.6718404,-153
1643460798861,14984.6718433,-111
1643460798861,14984.6718463,179
1643460798861,14984.6718492,602
1643460798861,14984.6718521,780
1643460798895,14984.6718549,444
1643460798895,14984.6718578,-108
1643460798895,14984.6718607,-234
1643460798895,14984.6718636,-61
1643460798895,14984.6718664,-78
1643460798895,14984.6718693,-141
1643460798895,14984.6718722,-94
1643460798895,14984.6718752,-63
1643460798895,14984.6718781,-73
1643460798895,14984.6718809,-68
1643460798927,14984.671884,-56
1643460798927,14984.671887,-63
1643460798927,14984.6718898,-80
1643460798927,14984.6718926,-70
1643460798927,14984.6718955,-47
1643460798927,14984.6718984,-47
1643460798927,14984.6719012,-52
1643460798927,14984.6719041,-42
1643460798927,14984.6719069,-21
1643460798927,14984.6719098,-7
1643460798961,14984.6719127,-2
1643460798961,14984.6719156,-2
1643460798961,14984.6719186,4
1643460798961,14984.6719237,16
1643460799260,14984.6719282,28
1643460799260,14984.6719312,47
1643460799260,14984.6719345,68
1643460799260,14984.6719372,73
1643460799260,14984.6719399,63
1643460799260,14984.6719427,59
1643460799260,14984.6719454,66
1643460799260,14984.6719482,78
1643460799260,14984.6719508,75
1643460799260,14984.6719537,70
1643460799294,14984.6719564,87
1643460799294,14984.6719592,87
1643460799294,14984.6719623,54
1643460799294,14984.6719651,9
1643460799294,14984.6719679,-18
1643460799294,14985.2216939,-35
1643460799294,14985.2217054,-52
1643460799294,14985.2217089,-49
1643460799294,14985.2217121,-30
1643460799294,14985.2217166,-30
1643460799328,14985.2217197,-54
1643460799328,14985.2217244,-66
1643460799328,14985.2217302,-54
1643460799328,14985.221734,-42
1643460799328,14985.2217388,-52
1643460799328,14985.2217418,-44
1643460799328,14985.2217458,-23
1643460799328,14985.2217488,-37
1643460799328,14985.2217527,-63
1643460799328,14985.2217556,-59
1643460799371,14985.2217595,-56
1643460799371,14985.2217625,-66
1643460799371,14985.2217663,-59
1643460799371,14985.2217693,-35
1643460799371,14985.2217742,-16
1643460799371,14985.2217786,-9
1643460799371,14985.2217833,-18
1643460799371,14985.2217863,-44
1643460799371,14985.2217912,-47
1643460799371,14985.2217942,-26
1643460799394,14985.2217992,-21
1643460799394,14985.2218023,-35
1643460799394,14985.2218071,-44
1643460799394,14985.2218108,-59
1643460799394,14985.2218157,-63
1643460799394,14985.2218186,-35
1643460799394,14985.2218217,-44
1643460799394,14985.2218256,-120
1643460799394,14985.2218287,-146
1643460799394,14985.2218335,18
1643460799427,14985.2218379,380
1643460799427,14985.2218428,718
1643460799427,14985.2218473,702
1643460799427,14985.2218524,186
1643460799427,14985.2218557,-307
1643460799427,14985.2218605,-226
1643460799427,14985.2218636,0
1643460799427,14985.2218685,-49
1643460799427,14985.2218715,-101
1643460799427,14985.2218754,-30
1643460799460,14985.2218785,-7
1643460799460,14985.2218832,-33
1643460799460,14985.2218877,-23
1643460799460,14985.221893,16
1643460799460,14985.2218961,26
1643460799460,14985.2219009,-2
1643460799460,14985.2219053,-16
1643460799460,14985.2219094,-9
1643460799460,14985.2219124,-7
1643460799460,14985.2219178,14
1643460799493,14985.2219217,59
1643460799493,14985.2219247,78
1643460799493,14985.2219292,42
1643460799493,14985.2219322,9
1643460799811,14985.221937,21
1643460799811,14985.22194,47
1643460799811,14985.2219429,52
1643460799811,14985.2219459,56
1643460799811,14985.2219487,70
1643460799811,14985.2219515,68
1643460799811,14985.2219543,78
1643460799811,14985.2219575,115
1643460799811,14985.2219602,139
1643460799811,14985.2219687,132
1643460799837,14985.221974,127
1643460799837,14985.2219769,125
1643460799837,14985.2219798,115
1643460799837,14985.2219826,101
1643460799837,14985.7719488,92
1643460799837,14985.7719622,82
1643460799837,14985.7719661,49
1643460799837,14985.7719716,11
1643460799837,14985.7719749,0
1643460799837,14985.7719801,2
1643460799863,14985.7719833,4
1643460799863,14985.7719882,18
1643460799863,14985.7719915,21
1643460799863,14985.7719966,9
1643460799863,14985.7719999,7
1643460799863,14985.7720049,4
1643460799863,14985.7720082,-14
1643460799863,14985.7720134,-16
1643460799863,14985.7720167,-2
1643460799863,14985.7720218,0
1643460799900,14985.7720251,11
1643460799900,14985.7720301,40
1643460799900,14985.7720334,30
1643460799900,14985.7720385,7
1643460799900,14985.7720418,16
1643460799900,14985.7720467,40
1643460799900,14985.7720508,47
1643460799900,14985.7720559,33
1643460799900,14985.7720592,16
1643460799900,14985.7720642,11
1643460799929,14985.7720675,26
1643460799929,14985.7720724,42
1643460799929,14985.7720757,42
1643460799929,14985.7720807,37
1643460799929,14985.772084,35
1643460799929,14985.772089,21
1643460799929,14985.7720922,16
1643460799929,14985.7720972,18
1643460799929,14985.7721005,11
1643460799929,14985.7721055,-9
1643460799953,14985.7721088,-47
1643460799953,14985.772114,-26
1643460799953,14985.7721173,205
1643460799953,14985.7721224,583
1643460799953,14985.7721258,765
1643460799953,14985.7721308,510
1643460799953,14985.7721341,40
1643460799953,14985.7721393,-115
1643460799953,14985.7721425,7
1643460799953,14985.7721481,11
1643460799977,14985.7721514,-11
1643460799977,14985.7721565,52
1643460799977,14985.7721598,61
1643460799977,14985.7721649,37
1643460799977,14985.7721681,54
1643460799977,14985.7721731,28
1643460799977,14985.7721765,-14
1643460799977,14985.7721816,30
1643460799977,14985.7721849,89
1643460799977,14985.77219,75
1643460800004,14985.7721932,47
1643460800004,14985.7722419,56
1643460800004,14985.7722523,61
1643460800004,14985.7722929,59
1643460800364,14985.7723024,82
1643460800364,14985.7723058,118
1643460800364,14985.7723089,113
1643460800364,14985.7723119,89
1643460800364,14985.7723148,99
1643460800364,14985.7723178,118
1643460800364,14985.7723208,122
1643460800364,14985.7723237,130
1643460800364,14985.7723266,125
1643460800364,14985.7723295,122
1643460800393,14985.7723325,156
1643460800393,14985.7723355,174
1643460800393,14985.7723384,165
1643460800393,14986.3219666,177
1643460800393,14986.3219802,205
1643460800393,14986.321984,167
1643460800393,14986.3219899,78
1643460800393,14986.3219942,70
1643460800393,14986.3219974,101
1643460800393,14986.3220004,56
1643460800420,14986.3220065,4
1643460800420,14986.3220097,-4
1643460800420,14986.3220149,-26
1643460800420,14986.322018,-56
1643460800420,14986.3220222,-80
1643460800420,14986.3220252,-115
1643460800420,14986.3220282,-203
1643460800420,14986.3220312,-576
1643460800420,14986.322034,-1330
1643460800420,14986.3220369,-2082
1643460800453,14986.3220398,-2565
1643460800453,14986.3220426,-2844
1643460800453,14986.3220454,-2867
1643460800453,14986.3220494,-2619
1643460800453,14986.3220524,-2229
1643460800453,14986.3220554,-1744
1643460800453,14986.3220582,-1208
1643460800453,14986.322061,-770
1643460800453,14986.3220639,-468
1643460800453,14986.3220667,-222
1643460800480,14986.3220696,-49
1643460800480,14986.3220725,49
1643460800480,14986.3220754,153
1643460800480,14986.3220782,234
1643460800480,14986.3220811,274
1643460800480,14986.322084,342
1643460800480,14986.322087,420
1643460800480,14986.3220899,456
1643460800480,14986.3220927,456
1643460800480,14986.3220956,439
1643460800505,14986.3220984,444
1643460800505,14986.3221012,444
1643460800505,14986.3221041,522
1643460800505,14986.3221089,843
1643460800505,14986.3221133,1191
1643460800505,14986.3221163,1156
1643460800505,14986.3221203,749
1643460800505,14986.3221234,399
1643460800505,14986.3221265,385
1643460800505,14986.3221303,458
1643460800529,14986.3221333,404
1643460800529,14986.3221362,380
1643460800529,14986.322139,418
1643460800529,14986.322142,418
1643460800529,14986.3221451,411
1643460800529,14986.3221481,420
1643460800529,14986.322151,375
1643460800529,14986.322154,328
1643460800529,14986.3221569,356
1643460800529,14986.3221599,371
1643460800563,14986.3221629,342
1643460800563,14986.322166,347
1643460800563,14986.3221716,356
1643460800563,14986.3221748,330
1643460800974,14986.3221797,319
1643460800974,14986.3221827,304
1643460800974,14986.3221856,288
1643460800974,14986.3221885,309
1643460800974,14986.3221913,323
1643460800974,14986.3221942,304
1643460800974,14986.3221972,321
1643460800974,14986.3222001,342
1643460800974,14986.3222029,328
1643460800974,14986.3222057,326
1643460801007,14986.3222086,316
1643460801007,14986.3222115,297
1643460801007,14986.9210434,326
1643460801007,14986.921054,340
1643460801007,14986.9210574,319
1643460801007,14986.9210605,321
1643460801007,14986.9210635,321
1643460801007,14986.9210665,281
1643460801007,14986.9210853,245
1643460801007,14986.9210898,193
1643460801041,14986.9210941,125
1643460801041,14986.9210972,137
1643460801041,14986.9211004,182
1643460801041,14986.9211035,156
1643460801041,14986.9211065,115
1643460801041,14986.9211096,120
1643460801041,14986.9211129,127
1643460801041,14986.9211159,130
1643460801041,14986.9211191,153
1643460801041,14986.9211222,158
1643460801074,14986.9211251,115
1643460801074,14986.9211281,120
1643460801074,14986.9211311,158
1643460801074,14986.921134,151
1643460801074,14986.9211369,137
1643460801074,14986.9211399,122
1643460801074,14986.9211428,99
1643460801074,14986.9211459,92
1643460801074,14986.921149,120
1643460801074,14986.9211521,165
1643460801108,14986.9211559,160
1643460801108,14986.92116,106
1643460801108,14986.921163,70
1643460801108,14986.9211661,80
1643460801108,14986.9211691,94
1643460801108,14986.921172,104
1643460801108,14986.9211749,122
1643460801108,14986.9211779,96
1643460801108,14986.9211809,66
1643460801108,14986.9211839,89
1643460801143,14986.9211868,75
1643460801143,14986.92119,-11
1643460801143,14986.921193,-30
1643460801143,14986.9211961,111
1643460801143,14986.9211991,399
1643460801143,14986.921202,704
1643460801143,14986.9212049,716
1643460801143,14986.9212079,286
1643460801143,14986.9212109,-85
1643460801143,14986.9212139,-23
1643460801182,14986.9212168,44
1643460801182,14986.9212198,-28
1643460801182,14986.9212228,-16
1643460801182,14986.9212542,23
1643460801182,14986.9212629,18
1643460801182,14986.9212666,23
1643460801182,14986.9212699,26
1643460801182,14986.921273,26
1643460801182,14986.9212767,26
1643460801182,14986.9212799,7
1643460801220,14986.921285,16
1643460801220,14986.9212909,54
1643460801220,14986.9212941,49
1643460801220,14986.9212971,14
1643460801472,14986.9213012,26
1643460801472,14986.9213043,73
1643460801472,14986.9213073,56
1643460801472,14986.9213102,28
1643460801472,14986.9213132,68
1643460801472,14986.9213161,94
1643460801472,14986.921319,68
1643460801472,14986.9213219,61
1643460801472,14986.9213249,73
1643460801472,14986.9213278,68
1643460801507,14986.9213307,61
1643460801507,14987.4215768,106
1643460801507,14987.4215892,137
1643460801507,14987.4215928,92
1643460801507,14987.4216961,82
1643460801507,14987.421708,134
1643460801507,14987.4217119,104
1643460801507,14987.4217148,23
1643460801507,14987.4217176,42
1643460801507,14987.4217203,66
1643460801540,14987.4217231,21
1643460801540,14987.421726,14
1643460801540,14987.421729,23
1643460801540,14987.4217319,-28
1643460801540,14987.4217346,-52
1643460801540,14987.4217374,-7
1643460801540,14987.4217401,-23
1643460801540,14987.4217428,-68
1643460801540,14987.4217455,-30
1643460801540,14987.4217482,-7
1643460801573,14987.421751,-42
1643460801573,14987.4217537,-54
1643460801573,14987.4217564,-30
1643460801573,14987.4217592,16
1643460801573,14987.4217619,56
1643460801573,14987.4217647,16
1643460801573,14987.4217674,-47
1643460801573,14987.4217703,-14
1643460801573,14987.421773,33
1643460801573,14987.4217758,16
1643460801606,14987.4217785,26
1643460801606,14987.4217812,37
1643460801606,14987.4217839,-14
1643460801606,14987.4217866,-28
1643460801606,14987.4217893,21
1643460801606,14987.4217921,4
1643460801606,14987.4217948,-35
1643460801606,14987.4217977,16
1643460801606,14987.4218009,49
1643460801606,14987.4218038,9
1643460801643,14987.4218073,-2
1643460801643,14987.4218139,-16
1643460801643,14987.421817,-66
1643460801643,14987.4218218,75
1643460801643,14987.4218249,484
1643460801643,14987.4218298,780
1643460801643,14987.4218328,614
1643460801643,14987.4218381,156
1643460801643,14987.4218417,-68
1643460801643,14987.4218446,2
1643460801676,14987.4218476,-7
1643460801676,14987.4218505,-61
1643460801676,14987.4218534,-11
1643460801676,14987.4218563,14
1643460801676,14987.4218592,-30
1643460801676,14987.4218621,-28
1643460801676,14987.421865,9
1643460801676,14987.4218682,14
1643460801676,14987.4218731,2
1643460801676,14987.4218761,-18
1643460801708,14987.421881,-11
1643460801708,14987.4218839,14
1643460801708,14987.4218869,-11
1643460801708,14987.4218898,-9
1643460802191,14987.4218927,52
1643460802191,14987.4218956,44
1643460802191,14987.4218983,-4
1643460802191,14987.4219011,14
1643460802191,14987.4219039,40
1643460802191,14987.4219066,16
1643460802191,14987.4219093,21
1643460802191,14987.421912,75
1643460802191,14987.4219148,89
1643460802191,14987.4219184,59
1643460802218,14988.118448,61
1643460802218,14988.1184609,101
1643460802218,14988.1184654,111
1643460802218,14988.1184709,85
1643460802218,14988.1184742,73
1643460802218,14988.1184792,47
1643460802218,14988.1184823,9
1643460802218,14988.1184873,21
1643460802218,14988.1184904,26
1643460802218,14988.1184958,-18
1643460802248,14988.1184989,-30
1643460802248,14988.1185019,-26
1643460802248,14988.1185049,-44
1643460802248,14988.1185079,-75
1643460802248,14988.118511,-78
1643460802248,14988.118514,-44
1643460802248,14988.118517,-30
1643460802248,14988.1185626,-40
1643460802248,14988.1185684,-44
1643460802248,14988.1185716,-49
1643460802294,14988.1185768,-70
1643460802294,14988.11858,-63
1643460802294,14988.1185874,-30
1643460802294,14988.1185907,-28
1643460802294,14988.1185949,-44
1643460802294,14988.1186167,-33
1643460802294,14988.118634,-14
1643460802294,14988.1186474,-2
1643460802294,14988.1186536,4
1643460802294,14988.1186571,18
1643460802322,14988.1186621,14
1643460802322,14988.1186653,-21
1643460802322,14988.1186704,-26
1643460802322,14988.1186735,16
1643460802322,14988.1186784,42
1643460802322,14988.1186816,0
1643460802322,14988.1186867,-63
1643460802322,14988.1186898,-80
1643460802322,14988.118695,-56
1643460802322,14988.1186982,-87
1643460802355,14988.1187032,-156
1643460802355,14988.1187064,-85
1643460802355,14988.118711,226
1643460802355,14988.118714,602
1643460802355,14988.1187173,739
1643460802355,14988.1187224,494
1643460802355,14988.1187256,47
1643460802355,14988.1187308,-139
1643460802355,14988.1187341,-47
1643460802355,14988.1187391,-30
1643460802380,14988.1187422,-87
1643460802380,14988.1187453,-75
1643460802380,14988.1187483,-42
1643460802380,14988.1187513,-54
1643460802380,14988.1187543,-61
1643460802380,14988.1187581,-14
1643460802380,14988.1187632,7
1643460802380,14988.1187663,-47
1643460802380,14988.1187713,-54
1643460802380,14988.1187745,-16
1643460802419,14988.1187775,-21
1643460802419,14988.1187805,-21
1643460802419,14988.1187838,7
1643460802419,14988.1187889,9
1643460802621,14988.1187921,-11
1643460802621,14988.1187951,2
1643460802621,14988.1187984,42
1643460802621,14988.1188014,54
1643460802621,14988.1188043,70
1643460802621,14988.1188073,101
1643460802621,14988.1188102,75
1643460802621,14988.1188131,61
1643460802621,14988.1188161,120
1643460802621,14988.5718545,160
1643460802646,14988.5718655,158
1643460802646,14988.5718692,151
1643460802646,14988.5718723,125
1643460802646,14988.5718753,104
1643460802646,14988.5718783,141
1643460802646,14988.5718813,196
1643460802646,14988.5718843,153
1643460802646,14988.5718873,73
1643460802646,14988.5718902,85
1643460802646,14988.5718932,106
1643460802670,14988.5718962,4
1643460802670,14988.5718992,-61
1643460802670,14988.5719022,0
1643460802670,14988.5719053,52
1643460802670,14988.5719082,78
1643460802670,14988.5719111,54
1643460802670,14988.5719141,-35
1643460802670,14988.571917,-54
1643460802670,14988.57192,-18
1643460802670,14988.5719229,-11
1643460802694,14988.5719259,33
1643460802694,14988.5719288,82
1643460802694,14988.5719324,14
1643460802694,14988.5719353,-59
1643460802694,14988.5719383,-44
1643460802694,14988.5719415,-40
1643460802694,14988.5719444,-56
1643460802694,14988.5719473,-56
1643460802694,14988.5719501,-40
1643460802694,14988.571953,-7
1643460802718,14988.5719559,-2
1643460802718,14988.5719589,-9
1643460802718,14988.5719618,-9
1643460802718,14988.5719647,14
1643460802718,14988.5719677,40
1643460802718,14988.5719706,-4
1643460802718,14988.5719735,-37
1643460802718,14988.5719765,96
1643460802718,14988.5719794,160
1643460802718,14988.5719823,-82
1643460802743,14988.5719853,-215
1643460802743,14988.5719882,127
1643460802743,14988.5719911,557
1643460802743,14988.5719941,640
1643460802743,14988.5719971,373
1643460802743,14988.5720001,40
1643460802743,14988.5720031,-23
1643460802743,14988.572006,52
1643460802743,14988.5720089,-11
1643460802743,14988.5720118,-108
1643460802767,14988.5720147,-85
1643460802767,14988.5720176,-16
1643460802767,14988.5720206,7
1643460802767,14988.5720235,68
1643460802767,14988.5720265,111
1643460802767,14988.5720294,-37
1643460802767,14988.5720323,-163
1643460802767,14988.5720352,-61
1643460802767,14988.5720382,26
1643460802767,14988.5720411,52
1643460802799,14988.5720439,92
1643460802799,14988.5720469,30
1643460802799,14988.5720498,-54
1643460802799,14988.5720527,-33
1643460803172,14988.5720556,11
1643460803172,14988.5720585,26
1643460803172,14988.5720614,70
1643460803172,14988.5720643,101
1643460803172,14988.5720673,33
1643460803172,14988.5720702,9
1643460803172,14988.5720731,106
1643460803172,14988.5720761,153
1643460803172,14989.1219798,108
1643460803172,14989.1219921,118
1643460803207,14989.1219971,165
1643460803207,14989.1220027,104
1643460803207,14989.1220063,9
1643460803207,14989.1220112,75
1643460803207,14989.1220144,174
1643460803207,14989.1220174,87
1643460803207,14989.1220225,-42
1643460803207,14989.1220254,-33
1643460803207,14989.1220286,-9
1643460803207,14989.1220326,-63
1643460803239,14989.1220357,-52
1643460803239,14989.1220407,-7
1643460803239,14989.1220456,-68
1643460803239,14989.1220507,-101
1643460803239,14989.1220547,-28
1643460803239,14989.1220595,-37
1643460803239,14989.1220638,-130
1643460803239,14989.1220686,-99
1643460803239,14989.1220733,-4
1643460803239,14989.1220783,-26
1643460803275,14989.1220829,-33
1643460803275,14989.1220878,42
1643460803275,14989.1220926,-47
1643460803275,14989.1220975,-191
1643460803275,14989.1221016,-146
1643460803275,14989.1221065,-111
1643460803275,14989.1221095,-132
1643460803275,14989.1221127,-66
1643460803275,14989.1221175,26
1643460803275,14989.1221205,-14
1643460803310,14989.1221237,-122
1643460803310,14989.1221278,-56
1643460803310,14989.1221331,96
1643460803310,14989.1221363,113
1643460803310,14989.1221413,87
1643460803310,14989.1221444,87
1643460803310,14989.1221492,-96
1643460803310,14989.1221524,-276
1643460803310,14989.1221573,-177
1643460803310,14989.1221603,-85
1643460803340,14989.1221634,99
1643460803340,14989.1221674,529
1643460803340,14989.1221705,574
1643460803340,14989.1221758,73
1643460803340,14989.1221809,-153
1643460803340,14989.1221859,37
1643460803340,14989.1221902,0
1643460803340,14989.122196,-148
1643460803340,14989.1221992,-63
1643460803340,14989.1222041,16
1643460803374,14989.122209,-23
1643460803374,14989.1222138,-82
1643460803374,14989.1222185,-101
1643460803374,14989.1222225,-16
1643460803374,14989.1222263,82
1643460803374,14989.122231,-37
1643460803374,14989.122234,-234
1643460803374,14989.1222372,-196
1643460803374,14989.1222414,-68
1643460803374,14989.1222446,-30
1643460803410,14989.1222496,9
1643460803410,14989.1222577,-14
1643460803410,14989.1222621,-165
1643460803410,14989.1222652,-210
1643460803774,14989.1222742,-99
1643460803774,14989.1222772,-35
1643460803774,14989.1222802,-92
1643460803774,14989.1222831,-122
1643460803774,14989.1222859,-28
1643460803774,14989.1222888,47
1643460803774,14989.1222918,33
1643460803774,14989.7219397,28
1643460803774,14989.7219535,68
1643460803774,14989.7219574,146
1643460803797,14989.7219632,151
1643460803797,14989.7219664,18
1643460803797,14989.7219697,-42
1643460803797,14989.7219749,30
1643460803797,14989.721978,68
1643460803797,14989.721981,68
1643460803797,14989.721984,115
1643460803797,14989.721987,113
1643460803797,14989.72199,49
1643460803797,14989.721993,-33
1643460803822,14989.7219959,-127
1643460803822,14989.7220006,-87
1643460803822,14989.7220038,28
1643460803822,14989.7220093,-9
1643460803822,14989.7220125,-108
1643460803822,14989.7220175,-63
1643460803822,14989.7220208,4
1643460803822,14989.7220258,-35
1643460803822,14989.7220291,-59
1643460803822,14989.722034,80
1643460803845,14989.7220372,127
1643460803845,14989.7220422,-66
1643460803845,14989.7220455,-61
1643460803845,14989.7220486,156
1643460803845,14989.7220517,96
1643460803845,14989.7220549,-139
1643460803845,14989.72206,-120
1643460803845,14989.7220633,37
1643460803845,14989.7220683,7
1643460803845,14989.7220715,-92
1643460803877,14989.7220765,-11
1643460803877,14989.7220797,101
1643460803877,14989.7220848,56
1643460803877,14989.722088,-18
1643460803877,14989.722093,-63
1643460803877,14989.7220962,-122
1643460803877,14989.7221013,-146
1643460803877,14989.7221045,-68
1643460803877,14989.7221098,165
1643460803877,14989.722113,520
1643460803902,14989.722118,737
1643460803902,14989.7221212,451
1643460803902,14989.7221263,-92
1643460803902,14989.7221296,-158
1643460803902,14989.7221345,70
1643460803902,14989.7221378,63
1643460803902,14989.7221427,-9
1643460803902,14989.722146,-9
1643460803902,14989.722151,-28
1643460803902,14989.7221543,-59
1643460803926,14989.7221593,-82
1643460803926,14989.7221625,-94
1643460803926,14989.7221675,-94
1643460803926,14989.7221708,-42
1643460803926,14989.7221757,30
1643460803926,14989.7221789,52
1643460803926,14989.7221839,52
1643460803926,14989.7221872,9
1643460803926,14989.7221923,-14
1643460803926,14989.7221957,40
1643460803950,14989.7222007,-30
1643460803950,14989.722204,-141
1643460803950,14989.722209,-52
1643460803950,14989.7222123,44
1643460804456,14989.7222173,42
1643460804456,14989.7222205,92
1643460804456,14989.7222236,127
1643460804456,14989.7222267,16
1643460804456,14989.7222297,-68
1643460804456,14989.7222327,42
1643460804456,14990.4182894,160
1643460804456,14990.4183024,111
1643460804456,14990.418306,35
1643460804456,14990.4183093,47
1643460804490,14990.4183171,73
1643460804490,14990.4183203,18
1643460804490,14990.4183238,-23
1643460804490,14990.4183267,68
1643460804490,14990.4183297,125
1643460804490,14990.4183327,-28
1643460804490,14990.4183356,-189
1643460804490,14990.4183385,-167
1643460804490,14990.4183414,-108
1643460804490,14990.4183549,-132
1643460804525,14990.418359,-137
1643460804525,14990.418362,-113
1643460804525,14990.418365,-122
1643460804525,14990.4183679,-113
1643460804525,14990.4183709,-75
1643460804525,14990.4183742,-2
1643460804525,14990.4183776,42
1643460804525,14990.4183805,-28
1643460804525,14990.4183835,-68
1643460804525,14990.4183864,4
1643460804552,14990.4183893,0
1643460804552,14990.4183928,-94
1643460804552,14990.4183957,-59
1643460804552,14990.4183987,21
1643460804552,14990.4184016,-37
1643460804552,14990.4184046,-80
1643460804552,14990.4184075,-14
1643460804552,14990.4184104,-11
1643460804552,14990.4184133,-63
1643460804552,14990.4184162,-33
1643460804576,14990.4184191,21
1643460804576,14990.418422,14
1643460804576,14990.4184249,-23
1643460804576,14990.4184279,-78
1643460804576,14990.4184313,-111
1643460804576,14990.4184342,-4
1643460804576,14990.4184372,321
1643460804576,14990.4184401,676
1643460804576,14990.4184431,645
1643460804576,14990.418446,200
1643460804601,14990.4184492,-120
1643460804601,14990.4184522,-82
1643460804601,14990.4184554,-49
1643460804601,14990.4184584,-137
1643460804601,14990.4184613,-151
1643460804601,14990.4184642,-68
1643460804601,14990.4184672,-28
1643460804601,14990.4184701,-52
1643460804601,14990.4184732,-82
1643460804601,14990.4184761,-151
1643460804629,14990.4184791,-158
1643460804629,14990.4184821,-132
1643460804629,14990.4184852,-179
1643460804629,14990.4184881,-78
1643460804629,14990.4184911,47
1643460804629,14990.4184939,-99
1643460804629,14990.4184969,-212
1643460804629,14990.4184998,-139
1643460804629,14990.4185028,-73
1643460804629,14990.4185057,-66
1643460804663,14990.4185087,-63
1643460804663,14990.4185116,-66
1643460804663,14990.4185148,-146
1643460804663,14990.4185177,-144
1643460804861,14990.4185207,87
1643460804861,14990.4185235,224
1643460804861,14990.4185264,-2
1643460804861,14990.4185296,-196
1643460804861,14990.4185326,56
1643460804861,14990.8217478,364
1643460804861,14990.8217588,252
1643460804861,14990.8217622,-42
1643460804861,14990.821765,-68
1643460804861,14990.8217679,120
1643460804894,14990.8217706,63
1643460804894,14990.8217735,-160
1643460804894,14990.8217763,-182
1643460804894,14990.821779,-120
1643460804894,14990.8217818,-63
1643460804894,14990.8217847,-7
1643460804894,14990.8217886,-82
1643460804894,14990.8217933,-156
1643460804894,14990.8217964,-82
1643460804894,14990.8217993,-61
1643460804928,14990.8218023,-148
1643460804928,14990.8218086,-182
1643460804928,14990.8218117,-115
1643460804928,14990.8218168,-52
1643460804928,14990.82182,-52
1643460804928,14990.8218249,-54
