unixTime,lslTime,ECG
1643454132663,8318.0740489,9
1643454132663,8318.0740546,14
1643454132663,8318.074058,11
1643454132663,8318.0740627,14
1643454132663,8318.0740658,38
1643454132663,8318.0740708,61
1643454132663,8318.0740738,54
1643454132663,8318.0740769,33
1643454132663,8318.0740812,19
1643454132663,8318.0740843,19
1643454132683,8318.0740882,16
1643454132683,8318.0740935,11
1643454132683,8318.0740966,16
1643454132683,8318.0740997,11
1643454132683,8318.0741036,-4
1643454132683,8318.0741069,106
1643454132683,8318.0741108,499
1643454132683,8318.074114,926
1643454132683,8318.0741192,826
1643454132683,8318.0741222,16
1643454132711,8318.0741254,-722
1643454132711,8318.0741296,-558
1643454132711,8318.0741345,-57
1643454132711,8318.0741377,16
1643454132711,8318.0741419,-54
1643454132711,8318.074146,2
1643454132711,8318.0741491,21
1643454132711,8318.0741533,0
1643454132711,8318.0741571,11
1643454132711,8318.0741613,26
1643454132736,8318.0741644,28
1643454132736,8318.0741684,33
1643454132736,8318.0741715,42
1643454132736,8318.0741772,49
1643454132736,8318.0741805,59
1643454132736,8318.0741837,61
1643454132736,8318.0741882,57
1643454132736,8318.0741914,64
1643454132736,8318.0741967,85
1643454132736,8318.0741998,106
1643454132757,8318.0742029,118
1643454132757,8318.6211046,128
1643454132757,8318.621134,142
1643454132757,8318.6211484,166
1643454132757,8318.6211552,178
1643454132757,8318.621159,178
1643454132757,8318.621164,166
1643454132757,8318.6211673,149
1643454132757,8318.6211722,130
1643454132757,8318.6211753,102
1643454132793,8318.6211785,68
1643454132793,8318.6211834,33
1643454132793,8318.6211883,0
1643454132793,8318.6211932,-26
1643454133196,8318.6211964,-57
1643454133196,8318.6211995,-87
1643454133196,8318.6212025,-92
1643454133196,8318.6212056,-80
1643454133196,8318.6212086,-83
1643454133196,8318.6212115,-83
1643454133196,8318.6212144,-78
1643454133196,8318.6212174,-76
1643454133196,8318.6212204,-66
1643454133196,8318.6212234,-52
1643454133227,8318.6212264,-45
1643454133227,8318.6212293,-40
1643454133227,8318.6212323,-30
1643454133227,8318.6212354,-23
1643454133227,8318.6212383,-14
1643454133227,8318.6212412,-4
1643454133227,8318.6212442,-2
1643454133227,8318.6212481,0
1643454133227,8318.6212532,7
1643454133227,8318.6212579,9
1643454133262,8318.6212627,11
1643454133262,8318.6212658,16
1643454133262,8318.6212691,19
1643454133262,8318.6213802,14
1643454133262,8318.6213901,14
1643454133262,8318.6213937,16
1643454133262,8318.6213989,16
1643454133262,8318.6214022,14
1643454133262,8318.6214072,14
1643454133262,8318.621411,14
1643454133296,8318.6214161,14
1643454133296,8318.6214201,21
1643454133296,8318.621425,19
1643454133296,8318.6214299,16
1643454133296,8318.6214348,16
1643454133296,8318.6214391,16
1643454133296,8318.6214442,14
1643454133296,8318.621449,16
1643454133296,8318.621454,19
1643454133296,8318.6214574,16
1643454133328,8318.6214624,19
1643454133328,8318.6214659,23
1643454133328,8318.6214708,26
1643454133328,8318.6214741,23
1643454133328,8318.6214792,28
1643454133328,8318.6214825,33
1643454133328,8318.6214874,28
1643454133328,8318.6214907,19
1643454133328,8318.6214955,16
1643454133328,8318.6214996,21
1643454133361,8318.6215045,26
1643454133361,8318.6215077,28
1643454133361,8318.6215113,23
1643454133361,8318.6215162,19
1643454133361,8318.6215198,21
1643454133361,8318.6215247,23
1643454133361,8318.6215278,28
1643454133361,8318.621531,52
1643454133361,8318.621536,73
1643454133361,8318.6215401,66
1643454133395,8319.1736999,45
1643454133395,8319.1737118,26
1643454133395,8319.173716,21
1643454133395,8319.1737216,26
1643454133395,8319.1737247,23
1643454133395,8319.1737294,9
1643454133395,8319.1737342,-16
1643454133395,8319.1737389,-40
1643454133395,8319.1737436,45
1643454133395,8319.1737483,403
1643454133428,8319.173753,860
1643454133428,8319.1737578,874
1643454133428,8319.1737607,142
1643454133428,8319.1737638,-703
1643454133718,8319.1737685,-670
1643454133718,8319.1737714,-116
1643454133718,8319.1737744,11
1643454133718,8319.1737773,-95
1643454133718,8319.1737801,-33
1643454133718,8319.1737829,11
1643454133718,8319.1737858,-23
1643454133718,8319.1737886,-11
1643454133718,8319.1737914,19
1643454133718,8319.1737943,11
1643454133740,8319.1737972,11
1643454133740,8319.1738,26
1643454133740,8319.1738029,30
1643454133740,8319.1738057,38
1643454133740,8319.1738086,47
1643454133740,8319.1738115,57
1643454133740,8319.1738145,68
1643454133740,8319.1738185,78
1643454133740,8319.1738215,90
1643454133740,8319.1738264,106
1643454133763,8319.1738293,125
1643454133763,8319.1738323,142
1643454133763,8319.1738361,156
1643454133763,8319.1738391,166
1643454133763,8319.1738438,163
1643454133763,8319.1738467,152
1643454133763,8319.1738497,137
1643454133763,8319.1738538,118
1643454133763,8319.1738568,92
1643454133763,8319.1738616,54
1643454133786,8319.1738655,16
1643454133786,8319.1738703,-9
1643454133786,8319.1738741,-26
1643454133786,8319.1738791,-35
1643454133786,8319.1738837,-38
1643454133786,8319.1738885,-38
1643454133786,8319.1738931,-35
1643454133786,8319.1738979,-35
1643454133786,8319.1739022,-38
1643454133786,8319.1739069,-45
1643454133806,8319.1739116,-42
1643454133806,8319.1739165,-33
1643454133806,8319.1739211,-23
1643454133806,8319.1739258,-21
1643454133806,8319.1739304,-16
1643454133806,8319.1739352,-7
1643454133806,8319.1739382,0
1643454133806,8319.1739413,4
1643454133806,8319.173946,14
1643454133806,8319.173949,16
1643454133828,8319.1739519,16
1643454133828,8319.1739561,21
1643454133828,8319.1739619,23
1643454133828,8319.1739771,23
1643454133828,8319.1739946,23
1643454133828,8319.1740126,26
1643454133828,8319.1740249,30
1643454133828,8319.174031,26
1643454133828,8319.1740344,19
1643454133828,8319.7246153,23
1643454133850,8319.7246265,26
1643454133850,8319.7246302,21
1643454133850,8319.7246339,19
1643454133850,8319.724637,14
1643454133850,8319.7246399,11
1643454133850,8319.7246429,14
1643454133850,8319.7246459,16
1643454133850,8319.724649,21
1643454133850,8319.7246522,26
1643454133850,8319.7246552,4
1643454133873,8319.7246582,-26
1643454133873,8319.7246612,-26
1643454133873,8319.7246641,-7
1643454133873,8319.7246671,-7
1643454134318,8319.72467,-11
1643454134318,8319.724673,-9
1643454134318,8319.7246759,-4
1643454134318,8319.7246789,-2
1643454134318,8319.7246818,2
1643454134318,8319.7246848,9
1643454134318,8319.7246878,9
1643454134318,8319.7246907,9
1643454134318,8319.7246937,11
1643454134318,8319.7246966,16
1643454134339,8319.7246996,16
1643454134339,8319.724703,16
1643454134339,8319.724706,21
1643454134339,8319.7247089,21
1643454134339,8319.7247118,21
1643454134339,8319.7247148,21
1643454134339,8319.7247177,19
1643454134339,8319.7247207,19
1643454134339,8319.7247237,14
1643454134339,8319.7247266,7
1643454134361,8319.7247296,14
1643454134361,8319.7247326,33
1643454134361,8319.7247355,57
1643454134361,8319.7247385,64
1643454134361,8319.7247415,47
1643454134361,8319.7247451,23
1643454134361,8319.7247481,14
1643454134361,8319.724751,19
1643454134361,8319.7247539,23
1643454134361,8319.7247572,19
1643454134384,8319.7247606,2
1643454134384,8319.7247636,-30
1643454134384,8319.7247666,14
1643454134384,8319.7247696,337
1643454134384,8319.7247725,805
1643454134384,8319.7247755,905
1643454134384,8319.7247784,297
1643454134384,8319.7247814,-560
1643454134384,8319.7247844,-672
1643454134384,8319.7247874,-144
1643454134407,8319.7247904,52
1643454134407,8319.7248175,-61
1643454134407,8319.7248292,-28
1643454134407,8319.724833,30
1643454134407,8319.724836,0
1643454134407,8319.7248391,2
1643454134407,8319.7248421,28
1643454134407,8319.724845,23
1643454134407,8319.7248829,16
1643454134407,8319.7248863,30
1643454134428,8319.7248892,42
1643454134428,8319.7248923,49
1643454134428,8319.7248952,59
1643454134428,8319.7248981,66
1643454134428,8319.7249013,71
1643454134428,8319.7249045,83
1643454134428,8319.7249075,99
1643454134428,8319.7249105,114
1643454134428,8320.3237082,130
1643454134428,8320.3237221,149
1643454134450,8320.3237269,166
1643454134450,8320.3237321,171
1643454134450,8320.3237354,168
1643454134450,8320.3237402,168
1643454134450,8320.3237434,163
1643454134450,8320.3237482,149
1643454134450,8320.3237532,114
1643454134450,8320.323758,52
1643454134450,8320.3237629,-4
1643454134450,8320.3237676,-30
1643454134472,8320.3237724,-52
1643454134472,8320.3237772,-66
1643454134472,8320.3237802,-71
1643454134472,8320.3237833,-78
1643454134873,8320.3237886,-83
1643454134873,8320.3237924,-71
1643454134873,8320.3237953,-64
1643454134873,8320.3237982,-61
1643454134873,8320.3238011,-52
1643454134873,8320.323804,-54
1643454134873,8320.3238068,-57
1643454134873,8320.3238097,-47
1643454134873,8320.3238125,-30
1643454134873,8320.3238154,-19
1643454134894,8320.3238182,-19
1643454134894,8320.3238211,-14
1643454134894,8320.323824,-4
1643454134894,8320.3238269,0
1643454134894,8320.3238297,2
1643454134894,8320.3238326,4
1643454134894,8320.3238354,11
1643454134894,8320.32384,11
1643454134894,8320.3238431,9
1643454134894,8320.3238461,9
1643454134919,8320.3238501,9
1643454134919,8320.3238532,11
1643454134919,8320.3238562,4
1643454134919,8320.3238593,-4
1643454134919,8320.3238631,0
1643454134919,8320.3238662,4
1643454134919,8320.3238711,-2
1643454134919,8320.3238744,2
1643454134919,8320.3238792,7
1643454134919,8320.3238821,2
1643454134941,8320.3238852,4
1643454134941,8320.3238901,9
1643454134941,8320.3238933,7
1643454134941,8320.3238967,7
1643454134941,8320.3238997,14
1643454134941,8320.3239047,14
1643454134941,8320.3239094,16
1643454134941,8320.3239142,16
1643454134941,8320.3239191,9
1643454134941,8320.3239238,7
1643454134960,8320.3239268,11
1643454134960,8320.3239303,14
1643454134960,8320.3239349,16
1643454134960,8320.3239399,21
1643454134960,8320.3239447,21
1643454134960,8320.3239496,21
1643454134960,8320.3239543,21
1643454134960,8320.3239591,21
1643454134960,8320.3239639,23
1643454134960,8320.323967,26
1643454134984,8320.3239719,28
1643454134984,8320.3239764,23
1643454134984,8320.3239816,21
1643454134984,8320.323985,21
1643454134984,8320.3239897,19
1643454134984,8320.3239943,21
1643454134984,8320.3239991,38
1643454134984,8320.8739532,64
1643454134984,8320.8739666,61
1643454134984,8320.8739706,38
1643454135005,8320.8739748,21
1643454135005,8320.8739778,19
1643454135005,8320.873981,19
1643454135005,8320.873986,21
1643454135005,8320.873989,21
1643454135005,8320.8739922,7
1643454135005,8320.874002,-14
1643454135005,8320.8740078,71
1643454135005,8320.8740109,437
1643454135005,8320.8740142,898
1643454135028,8320.8740182,881
1643454135028,8320.8740225,95
1643454135028,8320.8740257,-755
1643454135028,8320.8740299,-708
1643454135472,8320.8740366,-163
1643454135472,8320.8740398,-14
1643454135472,8320.8740428,-83
1643454135472,8320.8740458,-33
1643454135472,8320.8740488,0
1643454135472,8320.8740518,-26
1643454135472,8320.8740547,-11
1643454135472,8320.8740577,14
1643454135472,8320.8740607,11
1643454135472,8320.8740636,9
1643454135494,8320.8740666,21
1643454135494,8320.8740696,28
1643454135494,8320.8740725,35
1643454135494,8320.8740755,40
1643454135494,8320.8740784,42
1643454135494,8320.8740814,45
1643454135494,8320.8740844,59
1643454135494,8320.8740874,73
1643454135494,8320.8740903,90
1643454135494,8320.8740933,111
1643454135519,8320.8740962,130
1643454135519,8320.8740992,142
1643454135519,8320.8741022,152
1643454135519,8320.8741055,152
1643454135519,8320.8741084,142
1643454135519,8320.8741114,133
1643454135519,8320.8741145,114
1643454135519,8320.8741191,76
1643454135519,8320.8741233,38
1643454135519,8320.8741273,4
1643454135541,8320.8741304,-21
1643454135541,8320.8741336,-40
1643454135541,8320.874139,-49
1643454135541,8320.8741437,-57
1643454135541,8320.8741486,-54
1643454135541,8320.8741516,-49
1643454135541,8320.8741557,-49
1643454135541,8320.8741607,-47
1643454135541,8320.8741655,-40
1643454135541,8320.8741705,-38
1643454135561,8320.8741755,-35
1643454135561,8320.8741805,-30
1643454135561,8320.8741854,-23
1643454135561,8320.8741886,-16
1643454135561,8320.8741993,-11
1643454135561,8320.8742023,-7
1643454135561,8320.8742074,2
1643454135561,8320.8742114,9
1643454135561,8320.8742413,9
1643454135561,8320.8743175,9
1643454135584,8320.8743239,14
1643454135584,8320.8743282,19
1643454135584,8320.8743322,23
1643454135584,8320.8743351,28
1643454135584,8320.8743506,28
1643454135584,8320.8743662,21
1643454135584,8321.4744377,19
1643454135584,8321.4744513,23
1643454135584,8321.474455,23
1643454135584,8321.4744601,23
1643454135605,8321.4744632,21
1643454135605,8321.4744683,11
1643454135605,8321.4744728,2
1643454135605,8321.4744758,9
1643454135605,8321.4744789,16
1643454135605,8321.4744839,19
1643454135605,8321.4744867,23
1643454135605,8321.4744897,23
1643454135605,8321.4744927,4
1643454135605,8321.4744968,-21
1643454135629,8321.4744998,-23
1643454135629,8321.4745037,-9
1643454135629,8321.4745067,-4
1643454135629,8321.4745096,-4
1643454136073,8321.4745126,-7
1643454136073,8321.4745156,-4
1643454136073,8321.4745184,0
1643454136073,8321.4745213,0
1643454136073,8321.4745241,2
1643454136073,8321.4745269,4
1643454136073,8321.4745298,-4
1643454136073,8321.4745326,-16
1643454136073,8321.4745355,-11
1643454136073,8321.4745382,-7
1643454136096,8321.474541,-7
1643454136096,8321.4745439,-4
1643454136096,8321.4745467,-4
1643454136096,8321.4745499,-4
1643454136096,8321.4745527,-4
1643454136096,8321.4745556,11
1643454136096,8321.4745584,40
1643454136096,8321.4745612,49
1643454136096,8321.474564,30
1643454136096,8321.4745677,7
1643454136116,8321.4745707,-7
1643454136116,8321.4745748,-7
1643454136116,8321.4745777,2
1643454136116,8321.4745817,9
1643454136116,8321.4745856,7
1643454136116,8321.4745885,-16
1643454136116,8321.4745934,-11
1643454136116,8321.4745974,216
1643454136116,8321.4746005,691
1643454136116,8321.4746055,1002
1643454136140,8321.4746084,667
1643454136140,8321.4746114,-254
1643454136140,8321.4746164,-734
1643454136140,8321.4746204,-273
1643454136140,8321.4746253,92
1643454136140,8321.4746284,-54
1643454136140,8321.4746331,-83
1643454136140,8321.4746376,26
1643454136140,8321.4746423,2
1643454136140,8321.4746467,-26
1643454136163,8321.4746513,9
1643454136163,8321.4746555,14
1643454136163,8321.4746602,0
1643454136163,8321.4746649,7
1643454136163,8321.4746688,16
1643454136163,8321.4746718,16
1643454136163,8321.4746767,23
1643454136163,8321.4746796,33
1643454136163,8321.474683,38
1643454136163,8321.4746877,45
1643454136182,8321.4746916,57
1643454136182,8321.4746965,71
1643454136182,8321.4746996,85
1643454136182,8321.4747046,97
1643454136182,8321.4747091,111
1643454136182,8322.0725533,125
1643454136182,8322.0725671,133
1643454136182,8322.0725726,133
1643454136182,8322.0725786,121
1643454136182,8322.0725829,104
1643454136205,8322.072588,80
1643454136205,8322.0725914,54
1643454136205,8322.0725967,21
1643454136205,8322.0726,-7
1643454136205,8322.0726032,-28
1643454136205,8322.0726082,-42
1643454136205,8322.0726113,-52
1643454136205,8322.0726146,-59
1643454136205,8322.0726195,-54
1643454136205,8322.0726245,-42
1643454136229,8322.0726295,-38
1643454136229,8322.0726328,-47
1643454136229,8322.0726379,-71
1643454136229,8322.0726419,-95
1643454136674,8322.0726467,-90
1643454136674,8322.07265,-76
1643454136674,8322.0726531,-66
1643454136674,8322.0726562,-59
1643454136674,8322.0726593,-54
1643454136674,8322.0726624,-52
1643454136674,8322.0726655,-45
1643454136674,8322.0726689,-40
1643454136674,8322.072672,-38
1643454136674,8322.0726751,-33
1643454136705,8322.0726782,-30
1643454136705,8322.0726813,-38
1643454136705,8322.0726844,-28
1643454136705,8322.0726876,-14
1643454136705,8322.0726907,-11
1643454136705,8322.0726938,-11
1643454136705,8322.0726969,-9
1643454136705,8322.0727,-14
1643454136705,8322.0727047,-16
1643454136705,8322.072708,-14
1643454136741,8322.0727132,-4
1643454136741,8322.0727184,0
1643454136741,8322.0727233,-2
1643454136741,8322.0727266,-4
1643454136741,8322.0727315,-2
1643454136741,8322.0727347,2
1643454136741,8322.0727397,7
1643454136741,8322.0727431,9
1643454136741,8322.0727481,11
1643454136741,8322.072753,11
1643454136773,8322.0727577,14
1643454136773,8322.0727611,16
1643454136773,8322.0727661,14
1643454136773,8322.0727694,16
1643454136773,8322.0727744,23
1643454136773,8322.0727776,23
1643454136773,8322.0727809,21
1643454136773,8322.0727862,23
1643454136773,8322.0727899,28
1643454136773,8322.0727947,33
1643454136805,8322.0727981,28
1643454136805,8322.0728055,16
1643454136805,8322.0728087,19
1643454136805,8322.0728121,28
1643454136805,8322.0728175,28
1643454136805,8322.0728208,28
1643454136805,8322.0728266,42
1643454136805,8322.07283,61
1643454136805,8322.072835,68
1643454136805,8322.0728382,64
1643454136840,8322.0728415,45
1643454136840,8322.0728465,35
1643454136840,8322.0728514,38
1643454136840,8322.0728563,38
1643454136840,8322.6679827,40
1643454136840,8322.6679957,40
1643454136840,8322.6679997,33
1643454136840,8322.6680047,57
1643454136840,8322.668008,282
1643454136840,8322.6680127,741
1643454136874,8322.6680172,1012
1643454136874,8322.668022,556
1643454136874,8322.6680269,-418
1643454136874,8322.6680318,-838
1643454136874,8322.6680358,-399
1643454136874,8322.6680408,-11
1643454136874,8322.6680457,-26
1643454136874,8322.6680499,-28
1643454136874,8322.6680531,30
1643454136874,8322.6680582,14
1643454136907,8322.6680612,-7
1643454136907,8322.6680644,9
1643454136907,8322.6680693,4
1643454136907,8322.668074,-2
1643454137074,8322.6680786,14
1643454137074,8322.6680826,21
1643454137074,8322.6680856,7
1643454137074,8322.6680885,-2
1643454137074,8322.6680915,16
1643454137074,8322.6680944,38
1643454137074,8322.6680973,49
1643454137074,8322.6681002,61
1643454137074,8322.6681032,68
1643454137074,8322.6681061,92
1643454137106,8322.668109,118
1643454137106,8322.6681119,114
1643454137106,8322.6681148,123
1643454137106,8322.6681178,147
1643454137106,8322.6681207,125
1643454137106,8322.6681237,92
1643454137106,8322.6681266,80
1643454137106,8322.6681297,61
1643454137106,8322.6681328,30
1643454137106,8322.6681369,-11
1643454137138,8322.6681408,-52
1643454137138,8322.668144,-71
1643454137138,8322.6681488,-85
1643454137138,8322.6681538,-95
1643454137138,8322.6681589,-85
1643454137138,8322.6681629,-80
1643454137138,8322.6681677,-80
1643454137138,8322.6681716,-78
1643454137138,8322.6681764,-73
1643454137138,8322.6681811,-66
1643454137173,8322.668186,-59
1643454137173,8322.6681891,-42
1643454137173,8322.6681938,-40
1643454137173,8322.6681985,-42
1643454137173,8322.6682023,-28
1643454137173,8322.6682054,-9
1643454137173,8322.6682101,-7
1643454137173,8322.6682148,0
1643454137173,8322.6682197,9
1643454137173,8322.6682235,11
1643454137206,8322.6682285,16
1643454137206,8322.6682316,19
1643454137206,8322.6682364,26
1643454137206,8322.6682394,40
1643454137206,8322.6682426,40
1643454137206,8322.6682475,19
1643454137206,8322.6682524,9
1643454137206,8322.6682577,19
1643454137206,8322.6682608,21
1643454137206,8322.6682655,16
1643454137239,8322.6682704,11
1643454137239,8322.6682751,9
1643454137239,8322.6682782,9
1643454137239,8323.0737713,9
1643454137239,8323.0737837,11
1643454137239,8323.0737875,4
1643454137239,8323.0737928,2
1643454137239,8323.0737961,11
1643454137239,8323.0738012,4
1643454137239,8323.0738052,-4
1643454137273,8323.07381,9
1643454137273,8323.0738134,14
1643454137273,8323.0738182,4
1643454137273,8323.0738232,9
1643454137273,8323.0738282,11
1643454137273,8323.0738329,2
1643454137273,8323.0738376,4
1643454137273,8323.073842,4
1643454137273,8323.073847,0
1643454137273,8323.0738502,11
1643454137306,8323.0738551,28
1643454137306,8323.0738583,42
1643454137306,8323.0738634,57
1643454137306,8323.0738666,49
1643454137668,8323.0738716,-2
1643454137668,8323.0738748,-40
1643454137668,8323.0738779,-26
1643454137668,8323.0738809,-14
1643454137668,8323.0738864,-19
1643454137668,8323.0738897,-14
1643454137668,8323.0738927,-30
1643454137668,8323.0738958,-26
1643454137668,8323.0738988,190
1643454137668,8323.0739018,627
1643454137687,8323.0739049,886
1643454137687,8323.0739079,496
1643454137687,8323.0739109,-361
1643454137687,8323.0739139,-739
1643454137687,8323.0739169,-332
1643454137687,8323.0739214,28
1643454137687,8323.0739267,-4
1643454137687,8323.0739299,-30
1643454137687,8323.0739349,33
1643454137687,8323.0739382,23
1643454137708,8323.0740087,-2
1643454137708,8323.0740148,16
1643454137708,8323.0740181,28
1643454137708,8323.074023,26
1643454137708,8323.0740271,38
1643454137708,8323.0740319,54
1643454137708,8323.0740361,59
1643454137708,8323.0740409,57
1643454137708,8323.0740453,59
1643454137708,8323.0740501,68
1643454137728,8323.0740542,80
1643454137728,8323.074059,87
1643454137728,8323.0740622,95
1643454137728,8323.0740672,114
1643454137728,8323.0740721,130
1643454137728,8323.0740769,142
1643454137728,8323.0740801,152
1643454137728,8323.0740851,154
1643454137728,8323.0740886,152
1643454137728,8323.0740934,144
1643454137751,8323.0740966,128
1643454137751,8323.0741017,102
1643454137751,8323.074105,71
1643454137751,8323.0741098,33
1643454137751,8323.0741146,11
1643454137751,8323.0741194,-9
1643454137751,8323.0741224,-45
1643454137751,8323.0741257,-54
1643454137751,8323.0741305,-47
1643454137751,8323.0741339,-57
1643454137774,8323.0741387,-61
1643454137774,8323.0741421,-57
1643454137774,8323.6736328,-52
1643454137774,8323.673646,-42
1643454137774,8323.673651,-38
1643454137774,8323.6736562,-38
1643454137774,8323.6736595,-23
1643454137774,8323.6736645,-9
1643454137774,8323.6736697,-30
1643454137774,8323.6736745,-52
1643454137797,8323.6736794,-42
1643454137797,8323.6736843,-21
1643454137797,8323.6736892,-14
1643454137797,8323.6736941,-19
1643454137797,8323.6736973,-16
1643454137797,8323.6737022,-16
1643454137797,8323.6737076,-14
1643454137797,8323.6737125,-4
1643454137797,8323.6737156,-9
1643454137797,8323.6737187,-14
1643454137817,8323.6737228,-4
1643454137817,8323.6737261,0
1643454137817,8323.673731,-4
1643454137817,8323.673736,-2
1643454138216,8323.6737409,4
1643454138216,8323.6737447,4
1643454138216,8323.6737478,7
1643454138216,8323.6737507,11
1643454138216,8323.6737538,11
1643454138216,8323.6737567,9
1643454138216,8323.6737597,14
1643454138216,8323.6737627,23
1643454138216,8323.6737657,21
1643454138216,8323.6737687,7
1643454138240,8323.6737717,2
1643454138240,8323.6737747,7
1643454138240,8323.6737783,7
1643454138240,8323.6737815,11
1643454138240,8323.6737847,40
1643454138240,8323.673789,66
1643454138240,8323.6737922,71
1643454138240,8323.6737971,52
1643454138240,8323.6738002,26
1643454138240,8323.6738034,16
1643454138264,8323.6738084,21
1643454138264,8323.6738131,28
1643454138264,8323.6738183,33
1643454138264,8323.6738217,28
1643454138264,8323.6738267,7
1643454138264,8323.6738298,7
1643454138264,8323.673833,142
1643454138264,8323.6738371,527
1643454138264,8323.6738403,891
1643454138264,8323.6738451,693
1643454138284,8323.6738482,-109
1643454138284,8323.6738514,-677
1643454138284,8323.6738554,-418
1643454138284,8323.6738586,19
1643454138284,8323.6738635,59
1643454138284,8323.6738686,4
1643454138284,8323.6738734,47
1643454138284,8323.6738784,57
1643454138284,8323.6738832,35
1643454138284,8323.6738882,38
1643454138307,8323.6738931,45
1643454138307,8323.673898,47
1643454138307,8323.6739029,54
1643454138307,8323.6739079,61
1643454138307,8323.6739127,66
1643454138307,8323.6739177,73
1643454138307,8323.6739225,83
1643454138307,8323.6739272,87
1643454138307,8323.6739322,95
1643454138307,8323.67394,111
1643454138329,8323.6739451,128
1643454138329,8324.2236708,142
1643454138329,8324.2236846,154
1643454138329,8324.2236886,171
1643454138329,8324.2236938,182
1643454138329,8324.2236981,182
1643454138329,8324.223703,173
1643454138329,8324.2237062,168
1643454138329,8324.2237111,156
1643454138329,8324.2237152,128
1643454138350,8324.2237201,99
1643454138350,8324.2237241,64
1643454138350,8324.2237288,11
1643454138350,8324.2237334,-47
1643454138350,8324.2237382,-71
1643454138350,8324.2237415,-66
1643454138350,8324.2237467,-71
1643454138350,8324.2237509,-76
1643454138350,8324.2237557,-66
1643454138350,8324.2237597,-68
1643454138375,8324.2237645,-76
1643454138375,8324.2237691,-71
1643454138375,8324.223774,-59
1643454138375,8324.2237772,-52
1643454138817,8324.2237821,-49
1643454138817,8324.223786,-45
1643454138817,8324.2237891,-40
1643454138817,8324.2237926,-35
1643454138817,8324.2237956,-26
1643454138817,8324.2237985,-16
1643454138817,8324.2238015,-14
1643454138817,8324.2238045,-11
1643454138817,8324.2238074,-11
1643454138817,8324.2238104,-11
1643454138839,8324.2238134,-7
1643454138839,8324.2238164,-2
1643454138839,8324.2238194,-4
1643454138839,8324.2238225,-4
1643454138839,8324.2238257,-4
1643454138839,8324.2238286,-7
1643454138839,8324.2238315,-4
1643454138839,8324.2238347,2
1643454138839,8324.2238399,2
1643454138839,8324.2238447,-2
1643454138862,8324.2238495,-2
1643454138862,8324.2238527,2
1643454138862,8324.2238575,7
1643454138862,8324.2238619,7
1643454138862,8324.2238667,2
1643454138862,8324.2238711,4
1643454138862,8324.2238759,7
1643454138862,8324.2238807,4
1643454138862,8324.2238856,11
1643454138862,8324.2238887,28
1643454138884,8324.2238928,38
1643454138884,8324.223896,35
1643454138884,8324.2239009,19
1643454138884,8324.2239057,-4
1643454138884,8324.2239107,-16
1643454138884,8324.2239138,-11
1643454138884,8324.223917,-7
1643454138884,8324.2239202,-2
1643454138884,8324.2239244,-2
1643454138884,8324.2239276,-16
1643454138908,8324.2239324,-23
1643454138908,8324.2239355,114
1643454138908,8324.2239387,515
1643454138908,8324.2239437,902
1643454138908,8324.2239485,698
1643454138908,8324.2239535,-137
1643454138908,8324.2239567,-717
1643454138908,8324.2239618,-468
1643454138908,8324.2239651,-47
1643454138908,8324.2239699,4
1643454138929,8324.8223338,-26
1643454138929,8324.8224003,21
1643454138929,8324.8224137,35
1643454138929,8324.8224196,21
1643454138929,8324.8224229,30
1643454138929,8324.8224278,45
1643454138929,8324.822431,45
1643454138929,8324.8224361,52
1643454138929,8324.8224392,64
1643454138929,8324.822444,66
1643454138950,8324.8224471,45
1643454138950,8324.8224521,30
1643454138950,8324.8224552,47
1643454138950,8324.8224602,68
1643454138950,8324.8224633,73
1643454138950,8324.8224683,85
1643454138950,8324.8224714,104
1643454138950,8324.8224763,121
1643454138950,8324.8224794,137
1643454138950,8324.8224845,149
1643454138975,8324.822489,149
1643454138975,8324.8224921,152
1643454138975,8324.8224952,149
1643454138975,8324.8224996,135
1643454139417,8324.8225036,109
1643454139417,8324.8225068,78
1643454139417,8324.8225097,42
1643454139417,8324.8225126,7
1643454139417,8324.8225156,-21
1643454139417,8324.8225186,-40
1643454139417,8324.8225215,-52
1643454139417,8324.8225245,-57
1643454139417,8324.8225274,-54
1643454139417,8324.8225303,-49
1643454139439,8324.8225335,-49
1643454139439,8324.8225364,-47
1643454139439,8324.8225393,-42
1643454139439,8324.8225423,-35
1643454139439,8324.8225452,-30
1643454139439,8324.8225481,-21
1643454139439,8324.822551,-14
1643454139439,8324.8225539,-14
1643454139439,8324.8225568,-11
1643454139439,8324.8225597,-9
1643454139461,8324.8225626,-4
1643454139461,8324.8225656,-7
1643454139461,8324.8225706,-19
1643454139461,8324.8225748,-19
1643454139461,8324.8225778,-9
1643454139461,8324.8225816,-14
1643454139461,8324.8225846,-21
1643454139461,8324.8225879,-19
1643454139461,8324.8225929,-19
1643454139461,8324.8225959,-19
1643454139484,8324.8225991,-23
1643454139484,8324.8226043,-28
1643454139484,8324.8226075,-26
1643454139484,8324.8226119,-26
1643454139484,8324.8226161,-28
1643454139484,8324.8226193,-26
1643454139484,8324.8226232,-26
1643454139484,8324.8226264,-28
1643454139484,8324.8226303,-11
1643454139484,8324.8226334,9
1643454139505,8324.8226383,23
1643454139505,8324.8226412,28
1643454139505,8324.8226444,16
1643454139505,8324.8226494,-4
1643454139505,8324.8226524,-14
1643454139505,8324.8226553,-9
1643454139505,8324.8226585,-4
1643454139505,8324.8226637,0
1643454139505,8324.8226668,0
1643454139505,8325.4195332,-11
1643454139529,8325.4195471,-19
1643454139529,8325.419551,128
1643454139529,8325.4195563,548
1643454139529,8325.4195597,931
1643454139529,8325.4195646,693
1643454139529,8325.4195688,-180
1643454139529,8325.4195739,-762
1643454139529,8325.4195772,-470
1643454139529,8325.419582,-33
1643454139529,8325.4195861,2
1643454139549,8325.4195911,-35
1643454139549,8325.4195944,16
1643454139549,8325.4195992,26
1643454139549,8325.4196031,4
1643454139549,8325.419608,2
1643454139549,8325.419612,2
1643454139549,8325.4196169,9
1643454139549,8325.4196199,19
1643454139549,8325.4196232,23
1643454139549,8325.419628,33
1643454139574,8325.4196312,47
1643454139574,8325.4196361,57
1643454139574,8325.419641,64
1643454139574,8325.4196457,76
1643454139928,8325.419649,92
1643454139928,8325.4196522,109
1643454139928,8325.4196551,123
1643454139928,8325.4196581,140
1643454139928,8325.4196611,154
1643454139928,8325.4196641,161
1643454139928,8325.419667,161
1643454139928,8325.41967,159
1643454139928,8325.419673,149
1643454139928,8325.419676,133
1643454139949,8325.419679,106
1643454139949,8325.4196821,68
1643454139949,8325.419685,26
1643454139949,8325.4196881,-11
1643454139949,8325.4196911,-40
1643454139949,8325.4196941,-54
1643454139949,8325.4196971,-61
1643454139949,8325.4197003,-61
1643454139949,8325.4197059,-57
1643454139949,8325.4197091,-49
1643454139973,8325.4197124,-47
1643454139973,8325.4197172,-42
1643454139973,8325.4197214,-35
1643454139973,8325.4197262,-33
1643454139973,8325.4197311,-23
1643454139973,8325.4197359,-14
1643454139973,8325.4197395,-4
1643454139973,8325.4197427,2
1643454139973,8325.4197476,4
1643454139973,8325.4197509,4
1643454140007,8325.4197557,11
1643454140007,8325.419759,16
1643454140007,8325.4197639,19
1643454140007,8325.4197688,21
1643454140007,8325.4197737,23
1643454140007,8325.4197786,19
1643454140007,8325.4197834,16
1643454140007,8325.4197884,21
1643454140007,8325.4197932,21
1643454140007,8325.4197979,21
1643454140039,8325.4198029,21
1643454140039,8325.4198078,19
1643454140039,8325.4198126,19
1643454140039,8325.4198159,14
1643454140039,8325.4198207,11
1643454140039,8325.4198472,9
1643454140039,8325.4198513,7
1643454140039,8325.4198555,4
1643454140039,8325.9222774,4
1643454140039,8325.9222904,2
1643454140073,8325.9222947,7
1643454140073,8325.9222998,26
1643454140073,8325.922303,47
1643454140073,8325.9223077,54
1643454140073,8325.9223125,38
1643454140073,8325.9223173,-2
1643454140073,8325.9223222,-35
1643454140073,8325.922327,-30
1643454140073,8325.9223299,-19
1643454140073,8325.9223331,-21
1643454140107,8325.9223369,-21
1643454140107,8325.92234,-28
1643454140107,8325.9223439,-52
1643454140107,8325.9223469,-21
1643454140107,8325.9223509,249
1643454140107,8325.9223541,701
1643454140107,8325.922359,843
1643454140107,8325.9223639,285
1643454140107,8325.9223691,-546
1643454140107,8325.9223729,-691
1643454140139,8325.9223778,-199
1643454140139,8325.9223809,30
1643454140139,8325.9223858,-57
1643454140139,8325.9223906,-40
1643454140471,8325.9223954,11
1643454140471,8325.9223987,-14
1643454140471,8325.9224016,-21
1643454140471,8325.9224046,2
1643454140471,8325.9224075,7
1643454140471,8325.9224104,2
1643454140471,8325.9224133,7
1643454140471,8325.9224162,16
1643454140471,8325.9224191,21
1643454140471,8325.9224224,28
1643454140507,8325.9224253,40
1643454140507,8325.9224282,54
1643454140507,8325.9224312,68
1643454140507,8325.9224341,80
1643454140507,8325.9224369,95
1643454140507,8325.9224398,106
1643454140507,8325.9224429,123
1643454140507,8325.922446,137
1643454140507,8325.9224886,144
1643454140507,8325.9224938,144
1643454140540,8325.9224969,133
1643454140540,8325.9225018,123
1643454140540,8325.9225063,106
1643454140540,8325.9225102,85
1643454140540,8325.9225134,57
1643454140540,8325.9225188,21
1643454140540,8325.9225234,-9
1643454140540,8325.9225282,-33
1643454140540,8325.9225331,-42
1643454140540,8325.9225379,-40
1643454140573,8325.9225426,-38
1643454140573,8325.9225477,-35
1643454140573,8325.9225508,-30
1643454140573,8325.9225558,-33
1643454140573,8325.9225589,-33
1643454140573,8325.9225637,-26
1643454140573,8325.9225669,-16
1643454140573,8325.9225718,-9
1643454140573,8325.9225749,-2
1643454140573,8325.9225799,0
1643454140607,8325.9225845,2
1643454140607,8325.9225897,9
1643454140607,8325.9225929,16
1643454140607,8325.9225978,21
1643454140607,8325.9226008,26
1643454140607,8325.9226039,21
1643454140607,8325.9226079,16
1643454140607,8326.4729636,19
1643454140607,8326.4729901,21
1643454140607,8326.4729945,23
1643454140638,8326.4729978,23
1643454140638,8326.4730013,19
1643454140638,8326.4730043,7
1643454140638,8326.4730073,-4
1643454140638,8326.4730102,0
1643454140638,8326.4730132,7
1643454140638,8326.4730165,4
1643454140638,8326.4730204,2
1643454140638,8326.4730241,-2
1643454140638,8326.4730271,-21
1643454140672,8326.4730299,-38
1643454140672,8326.4730336,-33
1643454140672,8326.4730365,-28
1643454140672,8326.4730394,-33
1643454140672,8326.4730423,-23
1643454140672,8326.4730451,-7
1643454140672,8326.4730481,9
1643454140672,8326.4730512,26
1643454140672,8326.4730541,30
1643454140672,8326.473057,16
1643454140707,8326.4730599,-7
1643454140707,8326.4730628,-21
1643454140707,8326.4730658,-26
1643454140707,8326.4730687,-21
1643454141075,8326.4730716,-16
1643454141075,8326.4730745,-14
1643454141075,8326.4730774,-30
1643454141075,8326.4730803,-40
1643454141075,8326.4730832,128
1643454141075,8326.4730862,570
1643454141075,8326.4730891,912
1643454141075,8326.473092,615
1643454141075,8326.473095,-249
1643454141075,8326.4730995,-741
1643454141097,8326.4731036,-382
1643454141097,8326.4731067,21
1643454141097,8326.4731095,-4
1643454141097,8326.4731124,-52
1643454141097,8326.4731153,16
1643454141097,8326.4731182,23
1643454141097,8326.4731211,4
1643454141097,8326.4731241,16
1643454141097,8326.4731274,19
1643454141097,8326.4731303,16
1643454141117,8326.4731332,26
1643454141117,8326.4731361,30
1643454141117,8326.4731391,35
1643454141117,8326.473142,42
1643454141117,8326.4731449,47
1643454141117,8326.4731478,54
1643454141117,8326.4731517,66
1643454141117,8326.4731546,83
1643454141117,8326.4731575,99
1643454141117,8326.4731604,116
1643454141138,8326.4731633,123
1643454141138,8326.4731662,130
1643454141138,8326.4731691,144
1643454141138,8326.4731721,152
1643454141138,8326.473175,140
1643454141138,8326.4731797,125
1643454141138,8326.4731828,114
1643454141138,8326.4731886,97
1643454141138,8326.4731928,68
1643454141138,8326.4731961,33
1643454141161,8326.473201,0
1643454141161,8326.473204,-23
1643454141161,8326.473207,-35
1643454141161,8326.4732101,-42
1643454141161,8326.4732156,-47
1643454141161,8326.4732187,-47
1643454141161,8327.0737287,-40
1643454141161,8327.0737417,-35
1643454141161,8327.0737453,-35
1643454141161,8327.0737485,-35
1643454141182,8327.0737525,-47
1643454141182,8327.0737565,-47
1643454141182,8327.0737596,-23
1643454141182,8327.0737644,-14
1643454141182,8327.0737675,-21
1643454141182,8327.0737745,-16
1643454141182,8327.0737776,-21
1643454141182,8327.0737807,-40
1643454141182,8327.0737855,-35
1643454141182,8327.0737885,-16
1643454141206,8327.0737916,-19
1643454141206,8327.0737955,-26
1643454141206,8327.0737986,-26
1643454141206,8327.0738033,-33
1643454141206,8327.0738074,-38
1643454141206,8327.0738122,-28
1643454141206,8327.0738162,-26
1643454141206,8327.0738209,-28
1643454141206,8327.0738253,-23
1643454141206,8327.0738299,-23
1643454141227,8327.0738345,-26
1643454141227,8327.0738391,-21
1643454141227,8327.0738433,-16
1643454141227,8327.0738484,-16
1643454141583,8327.0738515,-16
1643454141583,8327.0738545,-14
1643454141583,8327.0738574,-11
1643454141583,8327.0738602,-16
1643454141583,8327.0738631,-16
1643454141583,8327.073866,-2
1643454141583,8327.0738689,19
1643454141583,8327.0738718,35
1643454141583,8327.0738746,40
1643454141583,8327.0738775,30
1643454141606,8327.0738804,9
1643454141606,8327.0738832,-2
1643454141606,8327.0738861,2
1643454141606,8327.0738889,7
1643454141606,8327.0738918,0
1643454141606,8327.0738949,-4
1643454141606,8327.073898,-14
1643454141606,8327.0739032,-16
1643454141606,8327.0739075,144
1643454141606,8327.0739121,575
1643454141628,8327.073917,941
1643454141628,8327.0739217,665
1643454141628,8327.0739248,-240
1643454141628,8327.0739296,-796
1643454141628,8327.0739341,-441
1643454141628,8327.0739389,2
1643454141628,8327.0739435,9
1643454141628,8327.0739481,-26
1643454141628,8327.0739511,30
1643454141628,8327.0739542,30
1643454141649,8327.0739589,16
1643454141649,8327.0739636,33
1643454141649,8327.0739683,42
1643454141649,8327.073972,42
1643454141649,8327.073975,47
1643454141649,8327.0739796,49
1643454141649,8327.0739843,57
1643454141649,8327.073989,66
1643454141649,8327.0739921,71
1643454141649,8327.0739968,83
1643454141673,8327.0739999,95
1643454141673,8327.0740046,97
1643454141673,8327.0740075,106
1643454141673,8327.0740106,125
1643454141673,8327.0740145,137
1643454141673,8327.5737659,140
1643454141673,8327.5737792,140
1643454141673,8327.5737852,133
1643454141673,8327.5737909,121
1643454141673,8327.5737962,111
1643454141695,8327.5738014,95
1643454141695,8327.5738065,71
1643454141695,8327.5738116,45
1643454141695,8327.5738148,7
1643454141695,8327.5738183,-33
1643454141695,8327.5738235,-54
1643454141695,8327.5738287,-59
1643454141695,8327.573833,-64
1643454141695,8327.5738363,-66
1643454141695,8327.5738416,-66
1643454141716,8327.5738446,-78
1643454141716,8327.573848,-99
1643454141716,8327.5738519,-102
1643454141716,8327.5738561,-83
1643454141716,8327.5738613,-73
1643454141716,8327.5738655,-68
1643454141716,8327.5738709,-59
1643454141716,8327.5738743,-52
1643454141716,8327.5738794,-45
1643454141716,8327.5738826,-35
1643454141738,8327.5738859,-30
1643454141738,8327.5738896,-26
1643454141738,8327.5738929,-19
1643454141738,8327.573898,-16
1643454142117,8327.5739023,-14
1643454142117,8327.5739056,-11
1643454142117,8327.5739087,-9
1643454142117,8327.5739118,-11
1643454142117,8327.5739149,-14
1643454142117,8327.573918,-16
1643454142117,8327.573921,-16
1643454142117,8327.573924,-11
1643454142117,8327.5739271,-7
1643454142117,8327.5739302,-11
1643454142139,8327.5739333,-11
1643454142139,8327.5739364,-2
1643454142139,8327.5739395,0
1643454142139,8327.5739426,-2
1643454142139,8327.5739457,0
1643454142139,8327.5739488,4
1643454142139,8327.5739519,7
1643454142139,8327.5739552,7
1643454142139,8327.5739586,7
1643454142139,8327.573963,9
1643454142161,8327.5739671,7
1643454142161,8327.5739705,4
1643454142161,8327.573976,9
1643454142161,8327.5739811,11
1643454142161,8327.5739862,11
1643454142161,8327.5739912,23
1643454142161,8327.5739962,42
1643454142161,8327.5740014,57
1643454142161,8327.5740066,66
1643454142161,8327.5740113,57
1643454142182,8327.5740164,30
1643454142182,8327.5740196,19
1643454142182,8327.574023,23
1643454142182,8327.5740282,26
1643454142182,8327.5740334,23
1643454142182,8327.5740385,21
1643454142182,8327.5740437,0
1643454142182,8327.5740488,11
1643454142182,8327.5740539,247
1643454142182,8327.5740591,693
1643454142206,8327.5740623,912
1643454142206,8327.5740675,477
1643454142206,8327.5740709,-377
1643454142206,8327.5740762,-674
1643454142206,8328.1239953,-199
1643454142206,8328.1240088,99
1643454142206,8328.1240139,-14
1643454142206,8328.1240191,-26
1643454142206,8328.1240222,52
1643454142206,8328.1240272,28
1643454142228,8328.1240314,4
1643454142228,8328.1240362,19
1643454142228,8328.1240409,-2
1643454142228,8328.1240464,-14
1643454142228,8328.1240495,11
1643454142228,8328.1240536,23
1643454142228,8328.1240567,21
1643454142228,8328.1240615,28
1643454142228,8328.1240647,42
1643454142228,8328.1240696,52
1643454142248,8328.1240741,59
1643454142248,8328.1240788,68
1643454142248,8328.1240836,83
1643454142248,8328.1240882,95
1643454142248,8328.1240926,104
1643454142248,8328.1240973,114
1643454142248,8328.1241021,123
1643454142248,8328.124107,123
1643454142248,8328.1241116,109
1643454142248,8328.1241163,92
1643454142273,8328.1241208,83
1643454142273,8328.1241257,59
1643454142273,8328.1241286,28
1643454142273,8328.1241318,4
1643454142717,8328.1241376,-21
1643454142717,8328.1241405,-42
1643454142717,8328.1241436,-52
1643454142717,8328.1241465,-57
1643454142717,8328.1241495,-59
1643454142717,8328.1241524,-52
1643454142717,8328.1241553,-49
1643454142717,8328.1241582,-49
1643454142717,8328.1241611,-42
1643454142717,8328.124164,-33
1643454142739,8328.1241669,-28
1643454142739,8328.1241698,-21
1643454142739,8328.1241726,-14
1643454142739,8328.1241756,-11
1643454142739,8328.1241785,-7
1643454142739,8328.1241816,0
1643454142739,8328.1241846,4
1643454142739,8328.1241875,7
1643454142739,8328.1241904,9
1643454142739,8328.1241932,11
1643454142762,8328.1241963,11
1643454142762,8328.1241994,14
1643454142762,8328.1242025,14
1643454142762,8328.1242067,14
1643454142762,8328.1242099,14
1643454142762,8328.124215,14
1643454142762,8328.124218,4
1643454142762,8328.1242211,2
1643454142762,8328.1242263,9
1643454142762,8328.1242293,7
1643454142783,8328.1242339,2
1643454142783,8328.1242379,9
1643454142783,8328.124241,11
1643454142783,8328.1242449,7
1643454142783,8328.1242479,11
1643454142783,8328.1242518,16
1643454142783,8328.1242548,9
1643454142783,8328.1242589,0
1643454142783,8328.124262,0
1643454142783,8328.124267,4
1643454142806,8328.1242711,4
1643454142806,8328.124276,11
1643454142806,8328.1242791,16
1643454142806,8328.7239273,11
1643454142806,8328.7239406,9
1643454142806,8328.7239444,16
1643454142806,8328.7239497,19
1643454142806,8328.723953,16
1643454142806,8328.7239562,9
1643454142806,8328.7239612,-16
1643454142828,8328.7239663,-35
1643454142828,8328.7239712,-14
1643454142828,8328.7239744,11
1643454142828,8328.7239792,21
1643454142828,8328.7239823,30
1643454142828,8328.7239855,23
1643454142828,8328.7239905,0
1643454142828,8328.7239951,-11
1643454142828,8328.724,-9
1643454142828,8328.7240047,-2
1643454142849,8328.7240095,0
1643454142849,8328.7240127,-9
1643454142849,8328.7240159,-28
1643454142849,8328.7240207,42
1643454142849,8328.7240255,375
1643454142849,8328.7240304,841
1643454142849,8328.7240379,898
1643454142849,8328.7240429,213
1643454142849,8328.724078,-629
1643454142849,8328.7240844,-662
1643454142872,8328.7240879,-140
1643454142872,8328.7240912,40
1643454142872,8328.7240943,-40
1643454142872,8328.7240973,0
1643454143329,8328.7241008,40
1643454143329,8328.7241038,9
1643454143329,8328.7241068,14
1643454143329,8328.7241105,35
1643454143329,8328.7241135,28
1643454143329,8328.7241165,26
1643454143329,8328.7241195,40
1643454143329,8328.7241225,49
1643454143329,8328.7241256,52
1643454143329,8328.7241286,64
1643454143361,8328.7241317,73
1643454143361,8328.7241348,80
1643454143361,8328.7241379,92
1643454143361,8328.7241409,106
1643454143361,8328.7241439,114
1643454143361,8328.7241473,128
1643454143361,8328.7241503,137
1643454143361,8328.7241534,142
1643454143361,8328.7241563,147
1643454143361,8328.7241593,144
1643454143394,8328.7241623,135
1643454143394,8328.7241652,118
1643454143394,8328.7241682,102
1643454143394,8328.7241712,83
1643454143394,8328.7241742,57
1643454143394,8328.7241775,21
1643454143394,8328.7241805,-4
1643454143394,8328.7241836,-19
1643454143394,8328.7241865,-38
1643454143394,8328.7241896,-57
1643454143429,8328.7241929,-59
1643454143429,8328.7241959,-49
1643454143429,8328.7241991,-47
1643454143429,8328.7242024,-49
1643454143429,8328.7242085,-49
1643454143429,8328.7242117,-38
1643454143429,8328.7242168,-28
1643454143429,8328.7242202,-21
1643454143429,8328.7242251,-11
1643454143429,8328.7242284,-7
1643454143462,8328.7242333,-2
1643454143462,8328.7242366,2
1643454143462,8329.3205288,7
1643454143462,8329.3205407,14
1643454143462,8329.320544,19
1643454143462,8329.3205468,21
1643454143462,8329.3205496,21
1643454143462,8329.3205524,14
1643454143462,8329.3205553,9
1643454143462,8329.3205582,11
1643454143494,8329.320561,14
1643454143494,8329.3205639,14
1643454143494,8329.32058,4
1643454143494,8329.3205921,-19
1643454143494,8329.3205961,-38
1643454143494,8329.3205992,-30
1643454143494,8329.3206021,-21
1643454143494,8329.320605,-21
1643454143494,8329.3206079,-19
1643454143494,8329.3206108,-19
1643454143530,8329.3206137,-19
1643454143530,8329.3206166,-9
1643454143530,8329.3206194,-4
1643454143530,8329.3206222,-4
1643454143530,8329.3206251,-4
1643454143530,8329.320628,0
1643454143530,8329.3206511,0
1643454143530,8329.320657,4
1643454143530,8329.3206602,9
1643454143530,8329.3206632,11
1643454143562,8329.3206661,14
1643454143562,8329.3206691,11
1643454143562,8329.320672,7
1643454143562,8329.3206748,4
1643454143930,8329.3206776,4
1643454143930,8329.3206805,4
1643454143930,8329.3206834,14
1643454143930,8329.3206863,38
1643454143930,8329.3206895,57
1643454143930,8329.3206923,59
1643454143930,8329.3206952,42
1643454143930,8329.3206981,19
1643454143930,8329.3207009,9
1643454143930,8329.3207037,11
1643454143962,8329.3207065,14
1643454143962,8329.3207093,9
1643454143962,8329.3207122,0
1643454143962,8329.3207151,-23
1643454143962,8329.3207182,23
1643454143962,8329.3207211,335
1643454143962,8329.320724,796
1643454143962,8329.3207268,883
1643454143962,8329.3207297,266
1643454143962,8329.3207325,-577
1643454143993,8329.3207354,-658
1643454143993,8329.3207383,-125
1643454143993,8329.3207413,59
1643454143993,8329.3207441,-59
1643454143993,8329.3207473,-26
1643454143993,8329.3207502,30
1643454143993,8329.320753,-4
1643454143993,8329.3207559,-2
1643454143993,8329.3207587,30
1643454143993,8329.3207615,28
1643454144031,8329.3207647,26
1643454144031,8329.3207676,38
1643454144031,8329.3207704,42
1643454144031,8329.3207734,47
1643454144031,8329.3207763,61
1643454144031,8329.3207792,73
1643454144031,8329.3207821,83
1643454144031,8329.320785,92
1643454144031,8329.3207878,102
1643454144031,8329.3207906,111
1643454144062,8329.3207936,128
1643454144062,8329.922324,142
1643454144062,8329.9223377,154
1643454144062,8329.9223414,156
1643454144062,8329.9223466,152
1643454144062,8329.9223503,140
1643454144062,8329.9223536,128
1643454144062,8329.9223585,114
1643454144062,8329.9223617,90
1643454144062,8329.9223664,59
1643454144084,8329.9223694,19
1643454144084,8329.9223736,-21
1643454144084,8329.9223768,-38
1643454144084,8329.9223815,-35
1643454144084,8329.9223855,-40
1643454144084,8329.9223903,-42
1643454144084,8329.9223934,-42
1643454144084,8329.9223982,-52
1643454144084,8329.9224012,-57
1643454144084,8329.9224044,-47
1643454144106,8329.9224094,-40
1643454144106,8329.9224127,-33
1643454144106,8329.9224173,-26
1643454144106,8329.9224204,-21
1643454144106,8329.9224256,-16
1643454144106,8329.9224302,-4
1643454144106,8329.922435,2
1643454144106,8329.9224382,4
1643454144106,8329.9224433,9
1643454144106,8329.9224469,9
1643454144129,8329.9224517,7
1643454144129,8329.9224549,9
1643454144129,8329.9224597,14
1643454144129,8329.9224642,16
1643454144572,8329.9224689,16
1643454144572,8329.922472,14
1643454144572,8329.9224755,16
1643454144572,8329.9224784,16
1643454144572,8329.9224814,19
1643454144572,8329.9224843,16
1643454144572,8329.9224872,16
1643454144572,8329.9224901,19
1643454144572,8329.922493,23
1643454144572,8329.9224959,21
1643454144595,8329.9224989,21
1643454144595,8329.9225019,23
1643454144595,8329.9225049,19
1643454144595,8329.9225079,4
1643454144595,8329.9225109,4
1643454144595,8329.9225139,14
1643454144595,8329.9225169,11
1643454144595,8329.9225198,11
1643454144595,8329.9225235,16
1643454144595,8329.9225266,19
1643454144617,8329.9225318,16
1643454144617,8329.9225352,21
1643454144617,8329.9225399,21
1643454144617,8329.9225446,19
1643454144617,8329.9225495,16
1643454144617,8329.9225527,16
1643454144617,8329.9225574,9
1643454144617,8329.9225605,4
1643454144617,8329.9225637,2
1643454144617,8329.9225687,0
1643454144640,8329.922573,7
1643454144640,8329.9225777,26
1643454144640,8329.9225808,45
1643454144640,8329.9225855,59
1643454144640,8329.9225886,52
1643454144640,8329.9225934,28
1643454144640,8329.9225965,7
1643454144640,8329.9226014,7
1643454144640,8329.9226046,14
1643454144640,8329.9226093,16
1643454144661,8330.570902,16
1643454144661,8330.5709144,0
1643454144661,8330.5709181,-9
1643454144661,8330.5709212,142
1643454144661,8330.5709243,560
1643454144661,8330.5709272,912
1643454144661,8330.5709301,665
1643454144661,8330.570933,-173
1643454144661,8330.5709359,-705
1643454144661,8330.5709388,-382
1643454144683,8330.5709417,45
1643454144683,8330.5709446,30
1643454144683,8330.5709476,-23
1643454144683,8330.5709505,45
1643454144683,8330.5709534,45
1643454144683,8330.5709563,9
1643454144683,8330.5709592,33
1643454144683,8330.5709621,52
1643454144683,8330.5709649,45
1643454144683,8330.5709678,54
1643454144705,8330.5709708,54
1643454144705,8330.5709737,26
1643454144705,8330.5709766,19
1643454144705,8330.5709795,45
1643454144705,8330.570983,61
1643454144705,8330.5709861,68
1643454144705,8330.5709892,83
1643454144705,8330.5709923,95
1643454144705,8330.5709967,104
1643454144705,8330.5709997,121
1643454144727,8330.5710027,140
1643454144727,8330.5710056,147
1643454144727,8330.5710086,149
1643454144727,8330.5710115,144
1643454145061,8330.5710144,130
1643454145061,8330.5710173,118
1643454145061,8330.5710202,106
1643454145061,8330.5710232,80
1643454145061,8330.571026,35
1643454145061,8330.571029,-4
1643454145061,8330.571032,-23
1643454145061,8330.5710351,-33
1643454145061,8330.5710381,-42
1643454145061,8330.571041,-42
1643454145084,8330.571044,-38
1643454145084,8330.5710472,-38
1643454145084,8330.5710793,-38
1643454145084,8330.5710825,-33
1643454145084,8330.5710855,-23
1643454145084,8330.5710884,-11
1643454145084,8330.5710914,-7
1643454145084,8330.5710943,-4
1643454145084,8330.5710972,-4
1643454145084,8330.5711001,-4
1643454145104,8330.571103,2
1643454145104,8330.571106,11
1643454145104,8330.571109,14
1643454145104,8330.5711119,14
1643454145104,8330.5711149,19
1643454145104,8330.5711178,23
1643454145104,8330.5711208,19
1643454145104,8330.5711237,9
1643454145104,8330.5711266,7
1643454145104,8330.5711296,9
1643454145128,8330.5711325,14
1643454145128,8330.5711354,14
1643454145128,8330.5711384,9
1643454145128,8330.5711413,9
1643454145128,8330.5711442,11
1643454145128,8330.5711471,11
1643454145128,8330.5711501,11
1643454145128,8330.571153,14
1643454145128,8330.5711561,4
1643454145128,8331.0701606,-2
1643454145150,8331.0701733,2
1643454145150,8331.070177,4
1643454145150,8331.0701802,2
1643454145150,8331.0701833,7
1643454145150,8331.0701864,11
1643454145150,8331.0701894,7
1643454145150,8331.0701924,2
1643454145150,8331.0701954,4
1643454145150,8331.0701984,11
1643454145150,8331.0702014,14
1643454145172,8331.0702044,9
1643454145172,8331.0702073,4
1643454145172,8331.0702104,-2
1643454145172,8331.0702133,-7
1643454145172,8331.0702163,-4
1643454145172,8331.0702193,7
1643454145172,8331.0702223,9
1643454145172,8331.0702252,4
1643454145172,8331.0702283,0
1643454145172,8331.0702312,4
1643454145193,8331.0702345,26
1643454145193,8331.0702375,42
1643454145193,8331.0702405,33
1643454145193,8331.0702434,14
1643454145193,8331.0702463,2
1643454145193,8331.0702494,-4
1643454145193,8331.0702523,-4
1643454145193,8331.0702553,4
1643454145193,8331.0702886,7
1643454145193,8331.0703055,-16
1643454145215,8331.0703103,-4
1643454145215,8331.0703138,237
1643454145215,8331.0703171,705
1643454145215,8331.0703201,929
1643454145615,8331.0703232,422
1643454145615,8331.0703263,-487
1643454145615,8331.0703293,-758
1643454145615,8331.0703324,-273
1643454145615,8331.0703355,28
1643454145615,8331.0703386,-35
1643454145615,8331.0703416,-28
1643454145615,8331.0703447,33
1643454145615,8331.0703477,11
1643454145615,8331.0703508,4
1643454145639,8331.0703538,30
1643454145639,8331.0703568,35
1643454145639,8331.0703599,38
1643454145639,8331.0703629,52
1643454145639,8331.0703659,54
1643454145639,8331.070369,59
1643454145639,8331.070372,71
1643454145639,8331.070375,78
1643454145639,8331.070378,90
1643454145639,8331.0703809,104
1643454145662,8331.0703839,114
1643454145662,8331.070387,125
1643454145662,8331.07039,144
1643454145662,8331.070393,161
1643454145662,8331.070396,171
1643454145662,8331.070399,182
1643454145662,8331.0704021,182
1643454145662,8331.0704051,168
1643454145662,8331.0704082,154
1643454145662,8331.0704116,142
1643454145682,8331.0704148,118
1643454145682,8331.0704178,85
1643454145682,8331.0704208,52
1643454145682,8331.0704238,21
1643454145682,8331.0704269,-2
1643454145682,8331.07043,-16
1643454145682,8331.0704331,-21
1643454145682,8331.0704362,-23
1643454145682,8331.623656,-23
1643454145682,8331.6236834,-28
1643454145706,8331.6236904,-33
1643454145706,8331.6236939,-35
1643454145706,8331.6236987,-30
1643454145706,8331.6237016,-23
1643454145706,8331.6237047,-21
1643454145706,8331.6237095,-16
1643454145706,8331.6237137,-2
1643454145706,8331.6237176,4
1643454145706,8331.6237207,2
1643454145706,8331.6237244,-4
1643454145728,8331.6237274,-11
1643454145728,8331.6237323,-11
1643454145728,8331.6237366,-7
1643454145728,8331.6237485,-9
1643454145728,8331.6237666,-11
1643454145728,8331.6237725,-19
1643454145728,8331.6237758,-33
1643454145728,8331.6237808,-38
1643454145728,8331.6237837,-35
1643454145728,8331.6237868,-33
1643454145752,8331.6237898,-30
1643454145752,8331.6237949,-28
1643454145752,8331.6237992,-42
1643454145752,8331.6238033,-59
1643454145752,8331.6238063,-54
1643454145752,8331.6238132,-42
1643454145752,8331.6238163,-42
1643454145752,8331.6238212,-35
1643454145752,8331.6238243,-30
1643454145752,8331.6238292,-35
1643454145772,8331.6238322,-33
1643454145772,8331.6238352,-26
1643454145772,8331.6238386,-30
1643454145772,8331.6238468,-33
1643454146127,8331.6238531,-26
1643454146127,8331.6238562,-28
1643454146127,8331.6238644,-30
1643454146127,8331.6238679,-21
1643454146127,8331.6238709,-16
1643454146127,8331.6238736,-16
1643454146127,8331.6238765,-2
1643454146127,8331.6238794,16
1643454146127,8331.6238821,30
1643454146127,8331.6238849,35
1643454146149,8331.6238877,23
1643454146149,8331.6238906,2
1643454146149,8331.6238934,-4
1643454146149,8331.6238962,4
1643454146149,8331.6238991,7
1643454146149,8331.6239018,4
1643454146149,8331.6239047,0
1643454146149,8331.6239076,-16
1643454146149,8331.6239107,71
1643454146149,8331.6239148,437
1643454146174,8331.6239178,886
1643454146174,8331.6239216,845
1643454146174,8331.6239246,76
1643454146174,8331.6239293,-701
1643454146174,8331.6239323,-584
1643454146174,8331.623936,-52
1643454146174,8331.6239391,52
1643454146174,8331.6239439,-28
1643454146174,8331.6239468,28
1643454146174,8331.6239498,57
1643454146194,8331.6239548,21
1643454146194,8331.6239589,30
1643454146194,8331.623963,54
1643454146194,8331.623966,47
1643454146194,8331.623969,49
1643454146194,8331.623974,61
1643454146194,8331.6239779,64
1643454146194,8332.1237295,68
1643454146194,8332.1237423,83
1643454146194,8332.1237471,92
1643454146216,8332.1237522,102
1643454146216,8332.1237554,116
1643454146216,8332.1237595,128
1643454146216,8332.1237628,140
1643454146216,8332.1237679,156
1643454146216,8332.1237711,173
1643454146216,8332.1237743,178
1643454146216,8332.1237792,173
1643454146216,8332.1237824,161
1643454146216,8332.1237872,154
1643454146238,8332.1237919,140
1643454146238,8332.1237968,116
1643454146238,8332.1238018,87
1643454146238,8332.1238067,52
1643454146238,8332.1238115,9
1643454146238,8332.1238165,-21
1643454146238,8332.1238197,-30
1643454146238,8332.1238246,-35
1643454146238,8332.1238277,-40
1643454146238,8332.1238326,-45
1643454146262,8332.1238358,-64
1643454146262,8332.1238407,-87
1643454146262,8332.123844,-85
1643454146262,8332.1238488,-73
1643454146262,8332.1238519,-71
1643454146262,8332.1238568,-61
1643454146262,8332.1238617,-52
1643454146262,8332.1238664,-47
1643454146262,8332.1238695,-40
1643454146262,8332.1238727,-30
1643454146283,8332.1238775,-23
1643454146283,8332.1238817,-21
1643454146283,8332.1238866,-23
1643454146283,8332.1238898,-26
1643454146667,8332.1238948,-21
1643454146667,8332.1238981,-21
1643454146667,8332.1239011,-21
1643454146667,8332.1239041,-19
1643454146667,8332.1239072,-19
1643454146667,8332.1239102,-23
1643454146667,8332.1239131,-23
1643454146667,8332.1239161,-21
1643454146667,8332.1239192,-19
1643454146667,8332.1239222,-16
1643454146686,8332.1239252,-14
1643454146686,8332.1239283,-11
1643454146686,8332.1239313,-14
1643454146686,8332.1239343,-11
1643454146686,8332.1239373,-4
1643454146686,8332.1239403,-2
1643454146686,8332.1239442,-2
1643454146686,8332.1239494,-4
1643454146686,8332.1239533,-4
1643454146686,8332.1239565,-2
1643454146706,8332.1239641,0
1643454146706,8332.1239781,-2
1643454146706,8332.124043,-2
1643454146706,8332.124051,2
1643454146706,8332.1240585,0
1643454146706,8332.124063,-7
1643454146706,8332.1240682,-2
1643454146706,8332.1240715,4
1643454146706,8332.1240765,4
1643454146706,8332.1240799,9
1643454146727,8332.1240848,30
1643454146727,8332.1240881,49
1643454146727,8332.124093,52
1643454146727,8332.1240962,45
1643454146727,8332.1241011,28
1643454146727,8332.1241044,9
1643454146727,8332.6738979,9
1643454146727,8332.6739113,19
1643454146727,8332.673915,23
1643454146727,8332.6739183,19
1643454146749,8332.6739225,-2
1643454146749,8332.6739257,9
1643454146749,8332.6739308,251
1643454146749,8332.673934,712
1643454146749,8332.6739389,926
1643454146749,8332.6739434,458
1643454146749,8332.6739483,-415
1643454146749,8332.6739515,-691
1643454146749,8332.6739565,-194
1643454146749,8332.67396,97
1643454146784,8332.6739632,-23
1643454146784,8332.6739681,-49
1643454146784,8332.6739732,-2
1643454146784,8332.6739781,-28
1643454146784,8332.6739811,-28
1643454146784,8332.6739843,4
1643454146784,8332.6739893,7
1643454146784,8332.6739941,4
1643454146784,8332.6739994,14
1643454146784,8332.6740026,23
1643454146816,8332.6740075,33
1643454146816,8332.6740108,42
1643454146816,8332.6740156,54
1643454146816,8332.6740188,64
1643454146816,8332.6740237,71
1643454146816,8332.6740278,83
1643454146816,8332.6740327,102
1643454146816,8332.674036,118
1643454146816,8332.6740391,135
1643454146816,8332.6740443,149
1643454146850,8332.6740493,152
1643454146850,8332.674057,147
1643454146850,8332.6740602,142
1643454146850,8332.6740635,135
1643454147185,8332.6740665,118
1643454147185,8332.6740695,97
1643454147185,8332.6740739,61
1643454147185,8332.6740771,26
1643454147185,8332.6740801,2
1643454147185,8332.6740831,-14
1643454147185,8332.6740861,-26
1643454147185,8332.6740891,-33
1643454147185,8332.6740921,-33
1643454147185,8332.6740951,-33
1643454147216,8332.674098,-33
1643454147216,8332.6741009,-38
1643454147216,8332.6741039,-38
1643454147216,8332.6741069,-30
1643454147216,8332.6741099,-26
1643454147216,8332.6741129,-23
1643454147216,8332.6741159,-19
1643454147216,8332.6741189,-11
1643454147216,8332.6741218,-4
1643454147216,8332.674126,0
1643454147250,8332.6741303,2
1643454147250,8332.6741353,4
1643454147250,8332.6741385,7
1643454147250,8332.6741425,4
1643454147250,8332.6741457,2
1643454147250,8332.6741509,4
1643454147250,8332.6741541,2
1643454147250,8332.6741591,-2
1643454147250,8332.6741622,-2
1643454147250,8332.6741654,-2
1643454147284,8332.6741704,-4
1643454147284,8332.6741736,-2
1643454147284,8332.6741784,-2
1643454147284,8332.6741822,-2
1643454147284,8332.6741871,-4
1643454147284,8333.1740443,-4
1643454147284,8333.1740577,-9
1643454147284,8333.1740637,-11
1643454147284,8333.1740689,-14
1643454147284,8333.1740735,-14
1643454147318,8333.1740807,-11
1643454147318,8333.1740838,-9
1643454147318,8333.1740869,-11
1643454147318,8333.1740922,-14
1643454147318,8333.1740953,-11
1643454147318,8333.1741001,-7
1643454147318,8333.174103,-4
1643454147318,8333.1741061,-2
1643454147318,8333.1741109,-14
1643454147318,8333.1741137,-45
1643454147350,8333.1741167,-57
1643454147350,8333.1741214,-40
1643454147350,8333.1741243,-33
1643454147350,8333.1741274,-35
1643454147350,8333.1741312,-26
1643454147350,8333.1741359,-7
1643454147350,8333.1741405,11
1643454147350,8333.1741453,26
1643454147350,8333.1741497,19
1643454147350,8333.1741544,-2
1643454147384,8333.1741573,-16
1643454147384,8333.1741603,-9
1643454147384,8333.1741653,-7
1643454147384,8333.1741683,-7
1643454147384,8333.1741731,-4
1643454147384,8333.174176,-21
1643454147384,8333.1741795,0
1643454147384,8333.1741846,268
1643454147384,8333.1741876,736
1643454147384,8333.1741923,914
1643454147418,8333.1741962,377
1643454147418,8333.174201,-494
1643454147418,8333.1742056,-693
1643454147418,8333.1742103,-180
1643454147874,8333.1742148,76
1643454147874,8333.1742179,-28
1643454147874,8333.1742207,-19
1643454147874,8333.1742236,45
1643454147874,8333.1742265,21
1643454147874,8333.1742293,16
1643454147874,8333.1742322,42
1643454147874,8333.174235,40
1643454147874,8333.1742378,40
1643454147874,8333.1742407,57
1643454147894,8333.1742436,61
1643454147894,8333.1742467,64
1643454147894,8333.1742496,76
1643454147894,8333.1742524,85
1643454147894,8333.1742553,92
1643454147894,8333.1742582,102
1643454147894,8333.1742611,116
1643454147894,8333.1742642,130
1643454147894,8333.1742681,144
1643454147894,8333.1742711,156
1643454147916,8333.1742758,163
1643454147916,8333.1742806,168
1643454147916,8333.1742852,173
1643454147916,8333.1742898,163
1643454147916,8333.1742944,147
1643454147916,8333.1742987,135
1643454147916,8333.1743034,116
1643454147916,8333.1743064,78
1643454147916,8333.1743094,40
1643454147916,8333.1743142,7
1643454147938,8333.1743187,-21
1643454147938,8333.1743233,-38
1643454147938,8333.1743282,-45
1643454147938,8333.1743328,-49
1643454147938,8333.8679853,-47
1643454147938,8333.868071,-40
1643454147938,8333.868082,-45
1643454147938,8333.8680861,-49
1643454147938,8333.8680894,-45
1643454147938,8333.8680924,-47
1643454147960,8333.8680955,-68
1643454147960,8333.8680985,-73
1643454147960,8333.8681014,-54
1643454147960,8333.8681044,-42
1643454147960,8333.8681074,-33
1643454147960,8333.8681103,-33
1643454147960,8333.8681133,-33
1643454147960,8333.8681162,-26
1643454147960,8333.8681192,-21
1643454147960,8333.8681222,-23
1643454147983,8333.8681252,-26
1643454147983,8333.8681282,-28
1643454147983,8333.8681312,-30
1643454147983,8333.8681341,-30
1643454147983,8333.8681371,-28
1643454147983,8333.8681402,-30
1643454147983,8333.8681431,-30
1643454147983,8333.8681468,-21
1643454147983,8333.8681528,-23
1643454147983,8333.8681592,-30
1643454148006,8333.8681624,-23
1643454148006,8333.8681669,-16
1643454148006,8333.868172,-19
1643454148006,8333.8681772,-23
1643454148006,8333.8681814,-21
1643454148006,8333.8681846,-16
1643454148006,8333.8681879,-21
1643454148006,8333.8681921,-21
1643454148006,8333.8681953,-16
1643454148006,8333.8681992,-11
1643454148027,8333.8682024,-7
1643454148027,8333.8682063,-4
1643454148027,8333.8682095,-9
1643454148027,8333.8682134,-11
1643454148317,8333.8682167,-2
1643454148317,8333.8682199,2
1643454148317,8333.8682229,-2
1643454148317,8333.8682259,7
1643454148317,8333.8682289,28
1643454148317,8333.868232,40
1643454148317,8333.868235,40
1643454148317,8333.8682379,30
1643454148317,8333.8682409,16
1643454148317,8333.8682439,9
1643454148339,8333.8682469,11
1643454148339,8333.8682598,14
1643454148339,8333.8682806,11
1643454148339,8333.8682875,4
1643454148339,8333.868291,-7
1643454148339,8333.8682942,78
1643454148339,8333.8682973,441
1643454148339,8333.8683003,905
1643454148339,8333.8683034,879
1643454148339,8333.8683066,90
1643454148360,8333.86831,-724
1643454148360,8333.8683131,-643
1643454148360,8333.8683163,-114
1643454148360,8333.8683228,19
1643454148360,8333.8683259,-47
1643454148360,8333.8683292,7
1643454148360,8333.8683336,35
1643454148360,8333.8683367,9
1643454148360,8333.8683398,23
1643454148360,8333.868343,45
1643454148384,8333.8683463,40
1643454148384,8333.8683505,42
1643454148384,8333.868355,57
1643454148384,8334.3237899,66
1643454148384,8334.3238016,71
1643454148384,8334.3238053,76
1643454148384,8334.3238084,87
1643454148384,8334.3238113,97
1643454148384,8334.3238143,111
1643454148384,8334.3238173,125
1643454148404,8334.3238202,137
1643454148404,8334.3238231,152
1643454148404,8334.323826,163
1643454148404,8334.3238289,163
1643454148404,8334.3238319,152
1643454148404,8334.3238348,142
1643454148404,8334.3238382,137
1643454148404,8334.3238411,123
1643454148404,8334.3238441,104
1643454148404,8334.323847,76
1643454148427,8334.32385,30
1643454148427,8334.3238529,-9
1643454148427,8334.3238558,-30
1643454148427,8334.3238587,-49
1643454148427,8334.3238616,-64
1643454148427,8334.3238645,-71
1643454148427,8334.3238675,-68
1643454148427,8334.3238703,-66
1643454148427,8334.3238733,-64
1643454148427,8334.3238762,-59
1643454148449,8334.323879,-52
1643454148449,8334.3238819,-42
1643454148449,8334.3238847,-33
1643454148449,8334.3238876,-28
1643454148449,8334.3238905,-26
1643454148449,8334.3238934,-28
1643454148449,8334.3238963,-21
1643454148449,8334.3238993,-9
1643454148449,8334.3239022,-2
1643454148449,8334.3239051,-4
1643454148472,8334.323908,-2
1643454148472,8334.3239109,2
1643454148472,8334.3239138,4
1643454148472,8334.3239167,4
1643454148871,8334.3239197,7
1643454148871,8334.3239225,7
1643454148871,8334.3239254,2
1643454148871,8334.3239287,-4
1643454148871,8334.3239321,-7
1643454148871,8334.3239351,-4
1643454148871,8334.323938,-7
1643454148871,8334.3239409,-11
1643454148871,8334.3239438,-9
1643454148871,8334.3239467,-4
1643454148895,8334.3239496,-7
1643454148895,8334.3239524,-14
1643454148895,8334.3239558,-16
1643454148895,8334.3239587,-9
1643454148895,8334.3239617,-7
1643454148895,8334.3239646,-16
1643454148895,8334.3239674,-16
1643454148895,8334.3239703,-7
1643454148895,8334.3239732,-4
1643454148895,8334.3239761,0
1643454148918,8334.3239791,4
1643454148918,8334.3239819,-2
1643454148918,8334.3239848,-2
1643454148918,8334.3239877,7
1643454148918,8334.3239906,16
1643454148918,8334.3239935,7
1643454148918,8334.3239965,0
1643454148918,8334.3239993,11
1643454148918,8334.3240022,30
1643454148918,8334.3240051,47
1643454148938,8334.324008,59
1643454148938,8334.3240109,54
1643454148938,8334.8745038,30
1643454148938,8334.8745179,7
1643454148938,8334.8745233,0
1643454148938,8334.8745289,9
1643454148938,8334.8745321,23
1643454148938,8334.8745351,21
1643454148938,8334.8745391,-2
1643454148938,8334.8745424,47
1643454148960,8334.8745463,358
1643454148960,8334.8745519,798
1643454148960,8334.8745551,848
1643454148960,8334.8745582,185
1643454148960,8334.8745615,-662
1643454148960,8334.8745665,-715
1643454148960,8334.8745696,-173
1643454148960,8334.8745729,21
1643454148960,8334.8745779,-78
1643454148960,8334.874581,-40
1643454148982,8334.8745843,11
1643454148982,8334.8745873,-16
1643454148982,8334.8746055,-7
1643454148982,8334.8746182,23
1643454148982,8334.8746246,19
1643454148982,8334.8746282,16
1643454148982,8334.8746333,30
1643454148982,8334.8746367,35
1643454148982,8334.8746417,40
1643454148982,8334.874646,52
1643454149007,8334.8746511,59
1643454149007,8334.8746544,68
1643454149007,8334.8746597,83
1643454149007,8334.8746631,99
1643454149007,8334.874668,114
1643454149007,8334.8746715,128
1643454149007,8334.8746763,144
1643454149007,8334.8746795,149
1643454149007,8334.8746828,149
1643454149007,8334.8746878,149
1643454149027,8334.8746912,140
1643454149027,8334.8746954,125
1643454149027,8334.8746987,111
1643454149027,8334.8747038,87
1643454149427,8334.8747071,57
1643454149427,8334.8747102,23
1643454149427,8334.8747134,-4
1643454149427,8334.8747165,-26
1643454149427,8334.8747198,-42
1643454149427,8334.8747228,-47
1643454149427,8334.8747258,-42
1643454149427,8334.8747289,-42
1643454149427,8334.8747319,-42
1643454149427,8334.874735,-35
1643454149449,8334.874738,-23
1643454149449,8334.8747411,-14
1643454149449,8334.8747441,-7
1643454149449,8334.8747621,-7
1643454149449,8334.8747654,-7
1643454149449,8334.8747685,0
1643454149449,8334.8747715,11
1643454149449,8334.8747746,28
1643454149449,8334.8747777,33
1643454149449,8334.8747809,19
1643454149471,8334.8747854,11
1643454149471,8334.8747899,21
1643454149471,8334.8747931,26
1643454149471,8334.8747961,28
1643454149471,8334.8747992,38
1643454149471,8334.8748022,35
1643454149471,8334.8748054,30
1643454149471,8334.8748095,42
1643454149471,8334.8748127,47
1643454149471,8334.8748158,38
1643454149496,8334.8748189,35
1643454149496,8335.4236598,35
1643454149496,8335.4236724,30
1643454149496,8335.4236768,19
1643454149496,8335.4236823,9
1643454149496,8335.4236871,4
1643454149496,8335.4236921,4
1643454149496,8335.4236953,7
1643454149496,8335.4236985,-9
1643454149496,8335.423704,-38
1643454149517,8335.4237072,-38
1643454149517,8335.4237121,-28
1643454149517,8335.4237153,-40
1643454149517,8335.4237193,-40
1643454149517,8335.4237244,-21
1643454149517,8335.4237275,-28
1643454149517,8335.4237311,-38
1643454149517,8335.4237599,-26
1643454149517,8335.4237676,-21
1643454149517,8335.4237714,-26
1643454149539,8335.4237746,-9
1643454149539,8335.4237776,14
1643454149539,8335.4237805,30
1643454149539,8335.4237835,33
1643454149539,8335.4237864,11
1643454149539,8335.4237893,-9
1643454149539,8335.4237922,-4
1643454149539,8335.4237952,0
1643454149539,8335.4237981,-4
1643454149539,8335.423801,7
1643454149563,8335.4239532,-2
1643454149563,8335.423966,-30
1643454149563,8335.4239702,92
1643454149563,8335.4239737,496
1643454149563,8335.4239768,876
1643454149563,8335.4239799,734
1643454149563,8335.4239829,-33
1643454149563,8335.4239859,-681
1643454149563,8335.4239888,-451
1643454149563,8335.4239919,40
1643454149583,8335.4239948,35
1643454149583,8335.4239977,-76
1643454149583,8335.4240007,4
1643454149583,8335.4240035,40
1643454149984,8335.4240064,4
1643454149984,8335.4240094,16
1643454149984,8335.4240125,40
1643454149984,8335.4240154,35
1643454149984,8335.4240184,30
1643454149984,8335.4240213,40
1643454149984,8335.4240241,54
1643454149984,8335.424027,68
1643454149984,8335.4240299,73
1643454149984,8335.4240329,85
1643454150007,8335.4240358,90
1643454150007,8335.4240388,97
1643454150007,8335.4240417,116
1643454150007,8335.4240446,133
1643454150007,8335.4240475,149
1643454150007,8335.4240504,166
1643454150007,8335.4240533,168
1643454150007,8335.4240562,163
1643454150007,8335.4240591,166
1643454150007,8335.424062,159
1643454150027,8335.4240649,149
1643454150027,8335.4240678,137
1643454150027,8335.4240707,97
1643454150027,8335.4240736,45
1643454150027,8335.4240765,21
1643454150027,8335.4240794,0
1643454150027,8335.4240824,-26
1643454150027,8335.4240852,-26
1643454150027,8335.4240881,-14
1643454150027,8335.4240911,-23
1643454150049,8335.9737647,-42
1643454150049,8335.9737792,-26
1643454150049,8335.9737847,-4
1643454150049,8335.97379,-9
1643454150049,8335.9737932,-16
1643454150049,8335.9737984,-16
1643454150049,8335.9738034,-19
1643454150049,8335.9738084,-33
1643454150049,8335.9738123,-30
1643454150049,8335.9738173,-14
1643454150072,8335.9738206,-9
1643454150072,8335.9738257,-11
1643454150072,8335.9738287,-4
1643454150072,8335.973832,-9
1643454150072,8335.973837,-9
1643454150072,8335.9738419,7
1643454150072,8335.9738468,14
1643454150072,8335.9738501,2
1643454150072,8335.9738551,2
1643454150072,8335.9738598,9
1643454150108,8335.9738648,9
1643454150108,8335.9738697,9
1643454150108,8335.9738751,4
1643454150108,8335.9738792,0
1643454150108,8335.9738843,7
1643454150108,8335.9738876,4
1643454150108,8335.9738928,-9
1643454150108,8335.9738969,-14
1643454150108,8335.9739017,-4
1643454150108,8335.9739048,-2
1643454150126,8335.973908,-2
1643454150126,8335.973913,-4
1643454150126,8335.9739176,-9
1643454150126,8335.9739226,-11
1643454150126,8335.9739273,-7
1643454150126,8335.9739324,2
1643454150126,8335.9739356,2
1643454150126,8335.9739407,4
1643454150126,8335.973944,7
1643454150126,8335.9739481,-2
1643454150146,8335.9739532,-2
1643454150146,8335.9739565,2
1643454150146,8335.9739615,2
1643454150146,8335.9739648,11
1643454150594,8335.9739699,38
1643454150594,8335.9739732,57
1643454150594,8335.9739762,64
1643454150594,8335.9739792,49
1643454150594,8335.9739824,23
1643454150594,8335.9739854,16
1643454150594,8335.9739884,23
1643454150594,8335.9739914,26
1643454150594,8335.9739943,26
1643454150594,8335.9739974,26
1643454150628,8335.9740005,11
1643454150628,8335.9740035,21
1643454150628,8335.9740065,230
1643454150628,8335.9740096,667
1643454150628,8335.9740128,907
1643454150628,8335.974018,482
1643454150628,8335.9740227,-375
1643454150628,8335.9740279,-693
1643454150628,8335.974031,-247
1643454150628,8335.9740342,83
1643454150660,8335.9740382,21
1643454150660,8335.9740415,2
1643454150660,8335.9740465,64
1643454150660,8335.9740513,57
1643454150660,8335.9740594,47
1643454150660,8335.9740645,68
1643454150660,8335.9740702,68
1643454150660,8335.9740736,66
1643454150660,8335.9740769,73
1643454150660,8336.5729527,80
1643454150694,8336.5729657,87
1643454150694,8336.5729694,95
1643454150694,8336.5729727,99
1643454150694,8336.5729779,97
1643454150694,8336.5729809,76
1643454150694,8336.572984,78
1643454150694,8336.5729881,109
1643454150694,8336.5729912,123
1643454150694,8336.5729958,128
1643454150694,8336.5729988,144
1643454150728,8336.5730019,154
1643454150728,8336.5730061,156
1643454150728,8336.5730092,149
1643454150728,8336.5730142,137
1643454150728,8336.5730184,118
1643454150728,8336.5730232,97
1643454150728,8336.5730262,68
1643454150728,8336.5730302,30
1643454150728,8336.5730334,2
1643454150728,8336.5730382,-16
1643454150760,8336.5730427,-38
1643454150760,8336.5730476,-49
1643454150760,8336.5730521,-38
1643454150760,8336.573057,-35
1643454150760,8336.5730628,-47
1643454150760,8336.5730677,-49
1643454150760,8336.5730713,-40
1643454150760,8336.5730761,-33
1643454150760,8336.573083,-28
1643454150760,8336.5730884,-23
1643454150794,8336.5730916,-19
1643454150794,8336.5732088,-9
1643454150794,8336.5732138,-2
1643454150794,8336.5732168,4
1643454150794,8336.5732197,11
1643454150794,8336.5732227,14
1643454150794,8336.5732256,16
1643454150794,8336.5732294,19
1643454150794,8336.5732325,19
1643454150794,8336.5732363,19
1643454150829,8336.5732394,23
1643454150829,8336.5732435,21
1643454150829,8336.5732464,11
1643454150829,8336.5732493,14
1643454151171,8336.5732525,14
1643454151171,8336.573256,9
1643454151171,8336.573259,2
1643454151171,8336.5732619,4
1643454151171,8336.5732648,7
1643454151171,8336.5732677,0
1643454151171,8336.5732706,-2
1643454151171,8336.5732736,7
1643454151171,8336.5732765,4
1643454151171,8336.5732794,-2
1643454151194,8336.5732823,-2
1643454151194,8336.5732852,4
1643454151194,8336.573288,2
1643454151194,8336.5732912,0
1643454151194,8336.5732941,7
1643454151194,8336.5732969,11
1643454151194,8336.5732998,11
1643454151194,8336.573303,11
1643454151194,8336.5733059,9
1643454151194,8336.5733088,11
1643454151218,8336.5733117,14
1643454151218,8336.5733146,19
1643454151218,8336.5733175,21
1643454151218,8336.5733204,23
1643454151218,8336.5733233,23
1643454151218,8336.5733262,19
1643454151218,8336.5733294,21
1643454151218,8336.5733359,23
1643454151218,8337.1748315,26
1643454151218,8337.1748453,35
1643454151239,8337.174849,54
1643454151239,8337.1748522,64
1643454151239,8337.1748565,64
1643454151239,8337.1748597,57
1643454151239,8337.1748648,35
1643454151239,8337.1748698,23
1643454151239,8337.1748746,23
1643454151239,8337.1748777,9
1643454151239,8337.1748818,-16
1643454151239,8337.1748849,-21
1643454151260,8337.1748897,-23
1643454151260,8337.1748945,-9
1643454151260,8337.1748995,204
1643454151260,8337.1749027,651
1643454151260,8337.1749074,900
1643454151260,8337.1749107,456
1643454151260,8337.1749155,-408
1643454151260,8337.1749185,-710
1643454151260,8337.1749216,-304
1643454151260,8337.1749264,-4
1643454151283,8337.1749296,-19
1643454151283,8337.1749347,-14
1643454151283,8337.1749378,33
1643454151283,8337.1749429,33
1643454151283,8337.1749461,30
1643454151283,8337.1749509,40
1643454151283,8337.174954,42
1643454151283,8337.1749589,49
1643454151283,8337.174962,57
1643454151283,8337.174967,57
1643454151305,8337.1749703,52
1643454151305,8337.174975,52
1643454151305,8337.1749781,54
1643454151305,8337.1749831,61
1643454151305,8337.174986,73
1643454151305,8337.1749892,87
1643454151305,8337.1749941,104
1643454151305,8337.1749981,118
1643454151305,8337.1750028,133
1643454151305,8337.1750069,142
1643454151327,8337.1750117,152
1643454151327,8337.1750148,156
1643454151327,8337.1750198,149
1643454151327,8337.1750227,144
1643454151772,8337.1750258,133
1643454151772,8337.1750289,109
1643454151772,8337.1750319,76
1643454151772,8337.1750349,40
1643454151772,8337.1750378,14
1643454151772,8337.1750407,-9
1643454151772,8337.1750437,-30
1643454151772,8337.1750466,-33
1643454151772,8337.1750496,-30
1643454151772,8337.1750526,-35
1643454151793,8337.1750556,-40
1643454151793,8337.1750585,-35
1643454151793,8337.1750614,-28
1643454151793,8337.1750643,-21
1643454151793,8337.1750672,-14
1643454151793,8337.1750701,-14
1643454151793,8337.175073,-11
1643454151793,8337.1750759,-7
1643454151793,8337.1750788,-2
1643454151793,8337.1750818,4
1643454151816,8337.1750847,11
1643454151816,8337.1750876,14
1643454151816,8337.1750906,9
1643454151816,8337.1750935,14
1643454151816,8337.1750966,19
1643454151816,8337.1750996,16
1643454151816,8337.1751026,9
1643454151816,8337.7696741,4
1643454151816,8337.7696858,-2
1643454151816,8337.7696893,-11
1643454151839,8337.7696923,-14
1643454151839,8337.7696956,-9
1643454151839,8337.7696986,-11
1643454151839,8337.7697015,-16
1643454151839,8337.7697045,-14
1643454151839,8337.7697074,-14
1643454151839,8337.7697104,-21
1643454151839,8337.7697133,-23
1643454151839,8337.7697162,-16
1643454151839,8337.7697619,-9
1643454151859,8337.7697746,-11
1643454151859,8337.7697792,-23
1643454151859,8337.7697831,-47
1643454151859,8337.7697865,-57
1643454151859,8337.7697895,-49
1643454151859,8337.7697925,-42
1643454151859,8337.7697954,-45
1643454151859,8337.7697983,-40
1643454151859,8337.7698013,-35
1643454151859,8337.7698043,-19
1643454151883,8337.7698073,11
1643454151883,8337.7698103,28
1643454151883,8337.7698133,19
1643454151883,8337.7698166,2
1643454151883,8337.7698196,-14
1643454151883,8337.7698225,-21
1643454151883,8337.7698255,-11
1643454151883,8337.7698287,-2
1643454151883,8337.7698317,-4
1643454151883,8337.7698347,-19
1643454151905,8337.7698377,-35
1643454151905,8337.7698407,40
1643454151905,8337.7698437,380
1643454151905,8337.7698467,831
1643454151905,8337.7698496,829
1643454151905,8337.7698526,118
1643454151905,8337.7698557,-636
1643454151905,8337.7698586,-591
1643454151905,8337.7698616,-102
1643454151905,8337.7698646,42
1643454151928,8337.7698675,-23
1643454151928,8337.7698709,14
1643454151928,8337.7698741,47
1643454151928,8337.7698771,23
1643454152284,8337.7698801,30
1643454152284,8337.7698831,49
1643454152284,8337.769886,49
1643454152284,8337.769889,52
1643454152284,8337.7698919,64
1643454152284,8337.7698949,68
1643454152284,8337.7698978,73
1643454152284,8337.7699008,83
1643454152284,8337.7699038,95
1643454152284,8337.7699068,104
1643454152305,8337.7699097,118
1643454152305,8337.7699126,133
1643454152305,8337.7699158,142
1643454152305,8337.7699188,154
1643454152305,8337.7699217,171
1643454152305,8337.7699246,182
1643454152305,8337.7699276,187
1643454152305,8337.7699305,180
1643454152305,8337.7699335,163
1643454152305,8337.7699364,149
1643454152329,8337.7699394,130
1643454152329,8337.7699424,102
1643454152329,8337.7699454,76
1643454152329,8337.7699484,45
1643454152329,8337.7699513,9
1643454152329,8337.7699544,-7
1643454152329,8338.2737303,-19
1643454152329,8338.2738189,-35
1643454152329,8338.273838,-42
1643454152329,8338.2738424,-38
1643454152349,8338.2738482,-35
1643454152349,8338.2738513,-35
1643454152349,8338.2738546,-23
1643454152349,8338.2738594,-21
1643454152349,8338.2738639,-23
1643454152349,8338.2738682,-14
1643454152349,8338.2738714,0
1643454152349,8338.2738747,4
1643454152349,8338.2738788,0
1643454152349,8338.2738827,-21
1643454152372,8338.273886,-38
1643454152372,8338.2738899,-23
1643454152372,8338.2738932,-4
1643454152372,8338.273898,-14
1643454152372,8338.2739012,-23
1643454152372,8338.2739044,-19
1643454152372,8338.2739097,-16
1643454152372,8338.273913,-16
1643454152372,8338.2739181,-16
1643454152372,8338.2739214,-23
1643454152394,8338.2739246,-35
1643454152394,8338.2739278,-35
1643454152394,8338.2739308,-33
1643454152394,8338.2739353,-35
1643454152394,8338.2739387,-35
1643454152394,8338.273942,-30
1643454152394,8338.2739475,-30
1643454152394,8338.2739521,-26
1643454152394,8338.2739574,-26
1643454152394,8338.2739607,-30
1643454152417,8338.2739656,-23
1643454152417,8338.2739689,-19
1643454152417,8338.2739743,-28
1643454152417,8338.2739775,-21
1643454152417,8338.2739806,-7
1643454152417,8338.2739837,-14
1643454152417,8338.2739867,-11
1643454152417,8338.2739898,19
1643454152417,8338.2739928,38
1643454152417,8338.273996,33
1643454152440,8338.2739991,21
1643454152440,8338.2740021,9
1643454152440,8338.2740053,-2
1643454152440,8338.2740084,0
1643454152883,8338.2740115,9
1643454152883,8338.2740145,9
1643454152883,8338.2740176,4
1643454152883,8338.274021,-7
1643454152883,8338.2740246,9
1643454152883,8338.2740518,242
1643454152883,8338.2740553,722
1643454152883,8338.2740584,990
1643454152883,8338.2740614,520
1643454152883,8338.2740645,-418
1643454152906,8338.2740675,-772
1643454152906,8338.2740706,-339
1643454152906,8338.2740737,-4
1643454152906,8338.2740768,-19
1643454152906,8338.2740798,-14
1643454152906,8338.2741015,33
1643454152906,8338.2741101,28
1643454152906,8338.274114,28
1643454152906,8338.2741172,35
1643454152906,8338.2741207,26
1643454152927,8338.2741237,33
1643454152927,8338.2741268,52
1643454152927,8338.2741307,59
1643454152927,8338.2741599,64
1643454152927,8338.2741664,73
1643454152927,8338.8696725,83
1643454152927,8338.8696859,99
1643454152927,8338.8696905,111
1643454152927,8338.8697259,123
1643454152927,8338.8697332,140
1643454152951,8338.8697364,156
1643454152951,8338.8697394,166
1643454152951,8338.8697428,175
1643454152951,8338.8697456,187
1643454152951,8338.8697485,190
1643454152951,8338.8697515,173
1643454152951,8338.8697547,142
1643454152951,8338.8697578,97
1643454152951,8338.8697611,54
1643454152951,8338.8697643,23
1643454152972,8338.8697672,-9
1643454152972,8338.8697702,-40
1643454152972,8338.8697731,-59
1643454152972,8338.869776,-73
1643454152972,8338.8697789,-78
1643454152972,8338.8697818,-68
1643454152972,8338.8697847,-64
1643454152972,8338.8697876,-64
1643454152972,8338.8697905,-59
1643454152972,8338.8697933,-52
1643454152993,8338.8697962,-57
1643454152993,8338.8697992,-52
1643454152993,8338.869802,-40
1643454152993,8338.8698049,-33
1643454152993,8338.8698079,-28
1643454152993,8338.8698108,-21
1643454152993,8338.8698137,-16
1643454152993,8338.8698166,-14
1643454152993,8338.8698195,-4
1643454152993,8338.8698224,4
1643454153017,8338.8698253,4
1643454153017,8338.8698281,4
1643454153017,8338.8698317,7
1643454153017,8338.8698347,0
1643454153017,8338.8698376,-4
1643454153017,8338.8698405,-2
1643454153017,8338.8698434,-7
1643454153017,8338.8698463,-9
1643454153017,8338.8698492,-4
1643454153017,8338.869852,-7
1643454153041,8338.8698549,-14
1643454153041,8338.8698578,-16
1643454153041,8338.8698607,-14
1643454153041,8338.8698637,-16
1643454153371,8338.8698666,-16
1643454153371,8338.8698696,-19
1643454153371,8338.8698725,-26
1643454153371,8338.8698753,-26
1643454153371,8338.8698782,-21
1643454153371,8338.869881,-23
1643454153371,8338.8698839,-28
1643454153371,8338.8698871,-19
1643454153371,8338.86989,0
1643454153371,8338.8698929,16
1643454153393,8338.8698958,9
1643454153393,8338.8698988,-9
1643454153393,8338.8699017,-26
1643454153393,8338.8699046,-30
1643454153393,8338.8699076,-26
1643454153393,8338.8699115,-26
1643454153393,8338.8699145,-26
1643454153393,8338.8699178,-28
1643454153393,8338.8699211,-42
1643454153393,8338.869924,16
1643454153416,8338.869927,335
1643454153416,8338.8699299,779
1643454153416,8338.8699329,850
1643454153416,8338.8699359,225
1643454153416,8339.3744424,-624
1643454153416,8339.3744558,-696
1643454153416,8339.3744603,-123
1643454153416,8339.3744658,78
1643454153416,8339.3744707,-49
1643454153416,8339.3744757,-21
1643454153440,8339.3744799,33
1643454153440,8339.3744848,4
1643454153440,8339.3744888,11
1643454153440,8339.3744941,38
1643454153440,8339.3744974,16
1643454153440,8339.3745024,0
1643454153440,8339.3745056,19
1643454153440,8339.3745106,35
1643454153440,8339.3745137,45
1643454153440,8339.3745185,61
1643454153460,8339.3745227,66
1643454153460,8339.3745275,59
1643454153460,8339.3745316,76
1643454153460,8339.3745365,104
1643454153460,8339.3745397,118
1643454153460,8339.3745429,133
1643454153460,8339.3745478,152
1643454153460,8339.3745528,161
1643454153460,8339.3745578,159
1643454153460,8339.3745624,152
1643454153484,8339.3745673,147
1643454153484,8339.3745721,135
1643454153484,8339.3745777,109
1643454153484,8339.3745823,73
1643454153484,8339.3745856,35
1643454153484,8339.374591,9
1643454153484,8339.3745942,-11
1643454153484,8339.3745974,-26
1643454153484,8339.3746026,-35
1643454153484,8339.3746057,-38
1643454153505,8339.3746089,-40
1643454153505,8339.374614,-47
1643454153505,8339.374643,-40
1643454153505,8339.3746608,-21
1643454153505,8339.3746685,-16
1643454153505,8339.3746719,-21
1643454153505,8339.3746753,-21
1643454153505,8339.3746805,-11
1643454153505,8339.3746838,0
1643454153505,8339.3746891,9
1643454153528,8339.3746924,14
1643454153528,8339.3746956,21
1643454153528,8339.3746986,26
1643454153528,8339.3747554,26
1643454153983,8339.3747628,19
1643454153983,8339.374767,11
1643454153983,8339.3747705,11
1643454153983,8339.3747736,16
1643454153983,8339.3747766,16
1643454153983,8339.3747796,14
1643454153983,8339.3747826,11
1643454153983,8339.3747856,19
1643454153983,8339.3747886,23
1643454153983,8339.3747916,21
1643454154015,8339.3747947,16
1643454154015,8339.3747977,11
1643454154015,8339.3748009,7
1643454154015,8339.374804,9
1643454154015,8339.374807,14
1643454154015,8339.37481,11
1643454154015,8339.3748129,4
1643454154015,8339.3748159,4
1643454154015,8339.374819,4
1643454154015,8339.3748221,-2
1643454154051,8339.374825,-2
1643454154051,8339.374828,7
1643454154051,8339.374831,16
1643454154051,8339.9736012,30
1643454154051,8339.9736132,38
1643454154051,8339.9736168,26
1643454154051,8339.9736219,4
1643454154051,8339.9736251,-9
1643454154051,8339.9736297,-7
1643454154051,8339.9736327,0
1643454154083,8339.9736357,2
1643454154083,8339.9736403,-9
1643454154083,8339.9736431,-59
1643454154083,8339.9736462,-95
1643454154083,8339.973651,76
1643454154083,8339.9736558,520
1643454154083,8339.9736604,883
1643454154083,8339.9736679,655
1643454154083,8339.9736727,-187
1643454154083,8339.9736759,-760
1643454154116,8339.9736811,-427
1643454154116,8339.9736846,26
1643454154116,8339.9736895,-19
1643454154116,8339.9736926,-92
1643454154116,8339.9736974,-7
1643454154116,8339.9737004,-2
1643454154116,8339.9737055,-30
1643454154116,8339.9737084,0
1643454154116,8339.9737115,14
1643454154116,8339.9737157,7
1643454154150,8339.9737187,11
1643454154150,8339.9737237,16
1643454154150,8339.9737268,23
1643454154150,8339.9737317,40
1643454154150,8339.9737346,49
1643454154150,8339.9737377,57
1643454154150,8339.9737417,71
1643454154150,8339.9737448,83
1643454154150,8339.9737494,90
1643454154150,8339.9737524,111
1643454154184,8339.9737554,135
1643454154184,8339.9737592,144
1643454154184,8339.973763,144
1643454154184,8339.9737661,149
1643454154184,8339.97377,149
1643454154184,8339.9737732,135
1643454154184,8339.9737779,114
1643454154184,8339.9737809,85
1643454154184,8339.9737841,57
1643454154184,8339.9737888,23
1643454154217,8339.9737934,-11
1643454154217,8339.9737981,-35
1643454154217,8339.9738019,-49
1643454154217,8339.9738064,-52
1643454154560,8339.9738093,-45
1643454154560,8339.9738124,-47
1643454154560,8339.9738152,-54
1643454154560,8339.9738181,-54
1643454154560,8339.9738209,-49
1643454154560,8339.9738239,-35
1643454154560,8339.973827,-30
1643454154560,8339.9738298,-28
1643454154560,8339.9738326,-19
1643454154560,8339.9738354,-19
1643454154583,8339.9738382,-19
1643454154583,8339.973841,-9
1643454154583,8339.9738439,-2
1643454154583,8339.9738468,0
1643454154583,8339.9738496,7
1643454154583,8339.9738525,11
1643454154583,8339.9738555,7
1643454154583,8339.9738595,7
1643454154583,8339.9738626,11
1643454154583,8339.9738663,11
1643454154605,8339.9738694,7
1643454154605,8339.9738741,9
1643454154605,8340.568173,9
1643454154605,8340.568186,2
1643454154605,8340.5681898,4
1643454154605,8340.568195,14
1643454154605,8340.5681982,11
1643454154605,8340.5682031,4
1643454154605,8340.568207,4
1643454154605,8340.5682117,14
1643454154626,8340.5682165,11
1643454154626,8340.5682214,-2
1643454154626,8340.5682245,-2
1643454154626,8340.5682276,9
1643454154626,8340.5682325,7
1643454154626,8340.5682369,-16
1643454154626,8340.5682421,-35
1643454154626,8340.568245,-16
1643454154626,8340.5682483,14
1643454154626,8340.5682531,7
1643454154650,8340.5682561,-21
1643454154650,8340.5682592,-38
1643454154650,8340.5682646,-42
1643454154650,8340.5682678,-40
1643454154650,8340.5682709,-30
1643454154650,8340.5682759,-30
1643454154650,8340.5682799,-45
1643454154650,8340.5682847,-66
1643454154650,8340.56829,-35
1643454154650,8340.5682949,223
1643454154672,8340.5682981,660
1643454154672,8340.5683036,800
1643454154672,8340.5683067,251
1643454154672,8340.5683118,-551
1643454154672,8340.5683168,-693
1643454154672,8340.5683223,-237
1643454154672,8340.5683277,-2
1643454154672,8340.5683327,-66
1643454154672,8340.5683374,-61
1643454154672,8340.5683422,-11
1643454154693,8340.5683471,-26
1643454154693,8340.5683517,-35
1643454154693,8340.5683549,-9
1643454154693,8340.5683597,-2
1643454154693,8340.5683641,-2
1643454154693,8340.5683689,11
1643454154693,8340.5683737,23
1643454154693,8340.5683785,26
1643454154693,8340.5683831,28
1643454154693,8340.5683879,38
1643454154716,8340.5683924,52
1643454154716,8340.5683971,71
1643454154716,8340.5684001,83
1643454154716,8340.5684032,85
1643454155072,8340.5684081,99
1643454155072,8340.568412,118
1643454155072,8340.5684149,130
1643454155072,8340.5684178,140
1643454155072,8340.5684208,142
1643454155072,8340.5684237,135
1643454155072,8340.5684266,123
1643454155072,8340.5684295,104
1643454155072,8340.5684324,85
1643454155072,8340.5684353,54
1643454155093,8340.5684383,14
1643454155093,8340.5684413,-19
1643454155093,8340.5684444,-28
1643454155093,8340.5684475,-35
1643454155093,8340.5684529,-45
1643454155093,8340.5684558,-45
1643454155093,8340.5684589,-33
1643454155093,8340.5684634,-28
1643454155093,8340.5684681,-30
1643454155093,8340.5684732,-28
1643454155115,8340.5684779,-16
1643454155115,8341.0743539,-9
1643454155115,8341.0743666,-4
1643454155115,8341.0743705,7
1643454155115,8341.0743762,11
1643454155115,8341.0743794,11
1643454155115,8341.0743824,19
1643454155115,8341.0743861,23
1643454155115,8341.0743894,28
1643454155115,8341.0743939,30
1643454155137,8341.0743971,23
1643454155137,8341.0744021,16
1643454155137,8341.0744052,19
1643454155137,8341.0744082,0
1643454155137,8341.0744114,-33
1643454155137,8341.0744145,-30
1643454155137,8341.0744178,-9
1643454155137,8341.0744229,-7
1643454155137,8341.074426,-7
1643454155137,8341.074429,-2
1643454155161,8341.0744322,-7
1643454155161,8341.0744372,-9
1643454155161,8341.0744413,-2
1643454155161,8341.0744445,-2
1643454155161,8341.0744481,-7
1643454155161,8341.0744517,-2
1643454155161,8341.0744547,2
1643454155161,8341.0744579,7
1643454155161,8341.0744634,23
1643454155161,8341.0744809,42
1643454155183,8341.0744847,33
1643454155183,8341.0744899,14
1643454155183,8341.0744932,-2
1643454155183,8341.0744981,-9
1643454155183,8341.074503,-4
1643454155183,8341.0745083,2
1643454155183,8341.0745116,4
1643454155183,8341.0745157,2
1643454155183,8341.0745199,-14
1643454155183,8341.074525,-9
1643454155204,8341.0745283,206
1643454155204,8341.0745324,689
1643454155204,8341.0745356,993
1643454155204,8341.0745396,563
1643454155204,8341.0745427,-384
1643454155204,8341.0745458,-791
1643454155204,8341.0745499,-384
1643454155204,8341.074555,-26
1643454155204,8341.0745581,-23
1643454155204,8341.0745613,-16
1643454155226,8341.0745663,33
1643454155226,8341.0745696,28
1643454155226,8341.0745746,23
1643454155226,8341.074578,40
1643454155715,8341.0745812,47
1643454155715,8341.0745843,52
1643454155715,8341.0745873,59
1643454155715,8341.0745902,66
1643454155715,8341.0745933,64
1643454155715,8341.0745963,59
1643454155715,8341.0745992,71
1643454155715,8341.0746022,90
1643454155715,8341.0746052,99
1643454155715,8341.0746082,111
1643454155737,8341.0746112,130
1643454155737,8341.0746142,144
1643454155737,8341.0746172,154
1643454155737,8341.0746202,171
1643454155737,8341.0746232,185
1643454155737,8341.0746264,175
1643454155737,8341.0746306,156
1643454155737,8341.0746339,149
1643454155737,8341.0746392,135
1643454155737,8341.0746423,109
1643454155761,8341.7193756,73
1643454155761,8341.7193895,28
1643454155761,8341.7193933,-9
1643454155761,8341.7193986,-28
1643454155761,8341.7194018,-47
1643454155761,8341.7194068,-54
1643454155761,8341.7194099,-49
1643454155761,8341.7194146,-49
1643454155761,8341.7194177,-49
1643454155761,8341.7194224,-38
1643454155784,8341.7194255,-47
1643454155784,8341.7194302,-78
1643454155784,8341.7194335,-78
1643454155784,8341.7194382,-57
1643454155784,8341.7194412,-47
1643454155784,8341.719446,-40
1643454155784,8341.719449,-28
1643454155784,8341.719469,-21
1643454155784,8341.7194751,-19
1643454155784,8341.7194782,-11
1643454155805,8341.7194831,-7
1643454155805,8341.7194863,-14
1643454155805,8341.7194909,-21
1643454155805,8341.719494,-11
1643454155805,8341.7194991,-9
1643454155805,8341.7195021,-16
1643454155805,8341.7195068,-19
1643454155805,8341.7195099,-16
1643454155805,8341.7195146,-14
1643454155805,8341.7195177,-11
1643454155828,8341.7195225,-14
1643454155828,8341.719526,-14
1643454155828,8341.7195307,-9
1643454155828,8341.7195337,-9
1643454155828,8341.7195386,-11
1643454155828,8341.7195418,0
1643454155828,8341.7195466,14
1643454155828,8341.7195496,26
1643454155828,8341.7195544,28
1643454155828,8341.7195574,19
1643454155849,8341.7195621,0
1643454155849,8341.7195652,-4
1643454155849,8341.7195699,2
1643454155849,8341.719573,2
1643454155849,8341.7195778,4
1643454155849,8341.7195809,9
1643454155849,8341.7195856,0
1643454155849,8341.7195886,2
1643454155849,8341.7195935,206
1643454155849,8341.7195965,684
1643454155872,8341.7196014,1026
1643454155872,8341.7196044,653
1643454155872,8341.7196097,-306
1643454155872,8341.7196127,-781
1643454156183,8341.7196157,-384
1643454156183,8341.7196186,-2
1643454156183,8341.7196215,-11
1643454156183,8341.7196243,-11
1643454156183,8341.7196272,52
1643454156183,8341.7196301,40
1643454156183,8341.7196329,28
1643454156183,8341.7196359,49
1643454156183,8341.7196387,59
1643454156183,8341.7196415,54
1643454156206,8341.7196444,52
1643454156206,8341.7196472,54
1643454156206,8341.71965,61
1643454156206,8341.7196533,73
1643454156206,8341.7196561,80
1643454156206,8341.719659,85
1643454156206,8341.7196618,97
1643454156206,8341.7196646,114
1643454156206,8341.7196674,130
1643454156206,8342.1743507,142
1643454156226,8342.1743632,159
1643454156226,8342.1743681,173
1643454156226,8342.1743739,171
1643454156226,8342.1743771,161
1643454156226,8342.174382,149
1643454156226,8342.1743863,130
1643454156226,8342.1743912,111
1643454156226,8342.1743946,85
1643454156226,8342.1743994,40
1643454156226,8342.1744026,-4
1643454156250,8342.1744075,-30
1643454156250,8342.1744105,-47
1643454156250,8342.1744136,-64
1643454156250,8342.1744185,-80
1643454156250,8342.174423,-95
1643454156250,8342.1744277,-104
1643454156250,8342.1744309,-106
1643454156250,8342.1744357,-102
1643454156250,8342.1744387,-92
1643454156250,8342.1744436,-80
1643454156273,8342.1744468,-71
1643454156273,8342.1744516,-66
1643454156273,8342.1744548,-59
1643454156273,8342.1744579,-54
1643454156273,8342.1744627,-52
1643454156273,8342.1744658,-40
1643454156273,8342.1744707,-28
1643454156273,8342.1744739,-23
1643454156273,8342.1744788,-23
1643454156273,8342.1744835,-21
1643454156293,8342.1744883,-19
1643454156293,8342.1744915,-14
1643454156293,8342.1744963,0
1643454156293,8342.1745009,2
1643454156293,8342.1745056,-7
1643454156293,8342.1745087,-14
1643454156293,8342.1745139,-7
1643454156293,8342.174517,-2
1643454156293,8342.1745218,-4
1643454156293,8342.1745256,0
1643454156316,8342.1745303,4
1643454156316,8342.1745335,-4
1643454156316,8342.1745383,-9
1643454156316,8342.1745416,2
1643454156316,8342.1745463,23
1643454156316,8342.1745493,40
1643454156316,8342.1745524,47
1643454156316,8342.1745572,49
1643454156316,8342.1745619,33
1643454156316,8342.1745666,7
1643454156339,8342.1745697,0
1643454156339,8342.1745745,9
1643454156339,8342.1745776,19
1643454156339,8342.1745825,19
1643454156827,8342.1745857,4
1643454156827,8342.1745888,-28
1643454156827,8342.1745917,-21
1643454156827,8342.1745948,235
1643454156827,8342.1745978,727
1643454156827,8342.1746008,952
1643454156827,8342.1746037,472
1643454156827,8342.1746067,-396
1643454156827,8342.1746097,-674
1643454156827,8342.1746126,-220
1643454156849,8342.1746156,64
1643454156849,8342.1746185,-11
1643454156849,8342.1746216,-11
1643454156849,8342.1746267,40
1643454156849,8342.1746314,14
1643454156849,8342.1746361,14
1643454156849,8342.1746393,59
1643454156849,8342.174644,73
1643454156849,8342.8230536,66
1643454156849,8342.8231685,64
1643454156872,8342.8231796,57
1643454156872,8342.823183,57
1643454156872,8342.8231861,80
1643454156872,8342.8231899,97
1643454156872,8342.8231929,92
1643454156872,8342.8231966,90
1643454156872,8342.8231997,87
1643454156872,8342.8232034,85
1643454156872,8342.8232064,95
1643454156872,8342.8232109,104
1643454156894,8342.8232142,114
1643454156894,8342.8232171,140
1643454156894,8342.82322,140
1643454156894,8342.8232974,109
1643454156894,8342.8233217,85
1643454156894,8342.8233283,78
1643454156894,8342.8233315,66
1643454156894,8342.8233366,35
1643454156894,8342.8233397,-9
1643454156894,8342.8233427,-40
1643454156915,8342.8234161,-61
1643454156915,8342.8234222,-76
1643454156915,8342.8234252,-68
1643454156915,8342.8234293,-54
1643454156915,8342.8234323,-57
1643454156915,8342.8234373,-59
1643454156915,8342.8234402,-57
1643454156915,8342.8234439,-64
1643454156915,8342.8234487,-61
1643454156915,8342.8234528,-47
1643454156938,8342.8234575,-47
1643454156938,8342.8234607,-47
1643454156938,8342.8234654,-26
1643454156938,8342.8234699,-2
1643454156938,8342.8234751,9
1643454156938,8342.8234782,0
1643454156938,8342.8234831,-7
1643454156938,8342.8234862,-4
1643454156938,8342.8234909,7
1643454156938,8342.8234939,33
1643454156961,8342.8234969,45
1643454156961,8342.8235019,16
1643454156961,8342.8235051,0
1643454156961,8342.8235103,11
1643454156961,8342.8235134,11
1643454156961,8342.8235182,2
1643454156961,8342.8235269,7
1643454156961,8342.82353,21
1643454156961,8342.8235328,26
1643454156961,8342.8235356,28
1643454156983,8342.8235386,16
1643454156983,8342.8235417,0
1643454156983,8342.8235446,9
1643454156983,8342.8235475,35
1643454157272,8342.8235503,40
1643454157272,8342.8235531,40
1643454157272,8342.8235559,42
1643454157272,8342.8235587,33
1643454157272,8342.8235615,23
1643454157272,8342.8235644,26
1643454157272,8342.8235909,38
1643454157272,8342.8235968,38
1643454157272,8342.8236001,30
1643454157272,8342.8236032,26
1643454157296,8342.8236061,9
1643454157296,8342.8236091,-7
1643454157296,8342.823612,140
1643454157296,8342.8236149,579
1643454157296,8342.8236178,976
1643454157296,8342.8236208,758
1643454157296,8342.8236237,-102
1643454157296,8343.2739979,-710
1643454157296,8343.2740126,-439
1643454157296,8343.2740172,4
1643454157316,8343.2740299,11
1643454157316,8343.2740407,-40
1643454157316,8343.2740535,40
1643454157316,8343.2740606,47
1643454157316,8343.2740799,7
1643454157316,8343.2740914,21
1643454157316,8343.2740972,38
1643454157316,8343.2741008,42
1643454157316,8343.2741059,54
1643454157316,8343.2741092,59
1643454157349,8343.2741122,54
1643454157349,8343.2741152,61
1643454157349,8343.2741264,76
1643454157349,8343.2741339,87
1643454157349,8343.2741384,97
1643454157349,8343.2741425,116
1643454157349,8343.2741479,114
1643454157349,8343.2741511,90
1643454157349,8343.274156,111
1643454157349,8343.2741593,149
1643454157383,8343.2741623,149
1643454157383,8343.2741654,154
1643454157383,8343.2741704,159
1643454157383,8343.2741736,118
1643454157383,8343.2741766,76
1643454157383,8343.2741797,73
1643454157383,8343.2741828,57
1643454157383,8343.2741858,4
1643454157383,8343.274189,-23
1643454157383,8343.2741948,-30
1643454157416,8343.2741979,-47
1643454157416,8343.2742031,-47
1643454157416,8343.2742089,-38
1643454157416,8343.2742138,-54
1643454157416,8343.274217,-71
1643454157416,8343.2742202,-68
1643454157416,8343.2742233,-64
1643454157416,8343.2742282,-59
1643454157416,8343.2742314,-57
1643454157416,8343.2742345,-40
1643454157450,8343.2742377,-23
1643454157450,8343.2742426,-40
1643454157450,8343.2742458,-47
1643454157450,8343.2742488,-19
1643454157450,8343.274252,0
1643454157450,8343.2742561,-7
1643454157450,8343.2742591,-9
1643454157450,8343.2742624,16
1643454157450,8343.2742663,38
1643454157450,8343.2742695,-2
1643454157483,8343.2742746,-38
1643454157483,8343.2742778,-2
1643454157483,8343.2742827,19
1643454157483,8343.2742859,11
1643454158084,8343.2742899,14
1643454158084,8343.274293,7
1643454158084,8343.274296,-2
1643454158084,8343.2742991,-4
1643454158084,8343.274302,-9
1643454158084,8343.2743074,2
1643454158084,8343.2743107,14
1643454158084,8343.2743275,2
1643454158084,8343.2743397,-4
1643454158084,8343.2743442,16
1643454158105,8343.2743477,23
1643454158105,8343.2743509,9
1643454158105,8343.274354,-9
1643454158105,8343.2743571,-9
1643454158105,8343.2743603,0
1643454158105,8343.2743633,-2
1643454158105,8344.070208,-7
1643454158105,8344.0702501,-7
1643454158105,8344.0702565,-40
1643454158105,8344.0702599,45
1643454158127,8344.0702628,465
1643454158127,8344.0702657,974
1643454158127,8344.0702686,912
1643454158127,8344.0702716,49
1643454158127,8344.0702744,-786
1643454158127,8344.0702773,-677
1643454158127,8344.0702802,-154
1643454158127,8344.070283,-33
1643454158127,8344.0702859,-78
1643454158127,8344.0702887,-19
1643454158148,8344.0702915,-2
1643454158148,8344.0702944,-9
1643454158148,8344.0702973,42
1643454158148,8344.0703002,52
1643454158148,8344.070303,14
1643454158148,8344.0703059,19
1643454158148,8344.0703087,30
1643454158148,8344.0703116,28
1643454158148,8344.0703144,57
1643454158148,8344.0703177,76
1643454158170,8344.0703205,61
1643454158170,8344.0703233,87
1643454158170,8344.0703261,123
1643454158170,8344.070329,116
1643454158170,8344.0703318,121
1643454158170,8344.0703347,152
1643454158170,8344.0703375,152
1643454158170,8344.0703404,144
1643454158170,8344.0703433,166
1643454158170,8344.0703462,173
1643454158195,8344.0703506,137
1643454158195,8344.0703536,118
1643454158195,8344.0703566,116
1643454158195,8344.0703596,68
1643454158195,8344.0703626,-11
1643454158195,8344.0703691,-45
1643454158195,8344.0703723,-26
1643454158195,8344.0703772,-26
1643454158195,8344.0703804,-40
1643454158195,8344.0703852,-42
1643454158215,8344.0703884,-45
1643454158215,8344.0703933,-64
1643454158215,8344.0703963,-68
1643454158215,8344.0704016,-23
1643454158215,8344.0704329,4
1643454158215,8344.0704377,-49
1643454158215,8344.0704408,-106
1643454158215,8344.0704456,-66
1643454158215,8344.0704489,2
1643454158215,8344.0704536,9
1643454158238,8344.0704569,-7
1643454158238,8344.0704609,0
1643454158238,8344.0704639,21
1643454158238,8344.0704668,21
1643454158415,8344.0704697,-21
1643454158415,8344.0704726,-35
1643454158415,8344.0704755,21
1643454158415,8344.0704784,21
1643454158415,8344.0704813,-57
1643454158415,8344.0704843,-64
1643454158415,8344.0704872,-4
1643454158415,8344.0704901,9
1643454158415,8344.0704931,-7
1643454158415,8344.070496,-19
1643454158439,8344.0704988,-30
1643454158439,8344.0705017,-19
1643454158439,8344.0705047,4
1643454158439,8344.0705075,-4
1643454158439,8344.0705104,-23
1643454158439,8344.423842,-9
1643454158439,8344.4238744,14
1643454158439,8344.4238821,9
1643454158439,8344.4238877,-30
1643454158439,8344.4238911,-49
1643454158460,8344.4238951,0
1643454158460,8344.4238981,47
1643454158460,8344.4239012,33
1643454158460,8344.4239044,33
1643454158460,8344.4239075,40
1643454158460,8344.4239129,-4
1643454158460,8344.4239161,-21
1643454158460,8344.423921,11
1643454158460,8344.4239242,7
1643454158460,8344.423929,-23
1643454158481,8344.4239322,-40
1643454158481,8344.423937,0
1643454158481,8344.4239402,318
1643454158481,8344.4239453,857
1643454158481,8344.4239558,1085
1643454158481,8344.4239615,534
1643454158481,8344.4239649,-494
1643454158481,8344.42397,-786
1643454158481,8344.4239732,-190
1643454158481,8344.4240296,80
1643454158507,8344.4240386,-80
1643454158507,8344.4240421,-26
1643454158507,8344.4240453,59
1643454158507,8344.4240484,-47
1643454158507,8344.4240514,-61
1643454158507,8344.4240545,35
1643454158507,8344.4240574,30
1643454158507,8344.4240605,-11
1643454158507,8344.4240634,19
1643454158507,8344.4240664,57
1643454158528,8344.4240697,28
1643454158528,8344.4240728,-28
1643454158528,8344.4240758,-19
1643454158528,8344.4240787,52
1643454158528,8344.4240817,90
1643454158528,8344.4240846,85
1643454158528,8344.4240876,97
1643454158528,8344.4240905,128
1643454158528,8344.4240934,116
1643454158528,8344.4240964,71
1643454158547,8344.4240994,68
1643454158547,8344.4241023,118
1643454158547,8344.4241053,152
1643454158547,8344.4241085,118
1643454158547,8344.4241116,76
1643454158547,8344.424117,57
1643454158547,8344.4241202,19
1643454158547,8344.4241251,-28
1643454158547,8344.4241283,-59
1643454158547,8344.4241339,-76
1643454158571,8344.4241372,-57
1643454158571,8344.424142,-4
1643454158571,8344.4241452,7
1643454158571,8344.4241501,-30
1643454159016,8344.4241533,-52
1643454159016,8344.4241563,-61
1643454159016,8344.4241593,-66
1643454159016,8344.4241623,-38
1643454159016,8344.4241652,-9
1643454159016,8344.4241681,-2
1643454159016,8344.4241711,-7
1643454159016,8344.424174,-4
1643454159016,8344.424177,-7
1643454159016,8344.42418,-26
1643454159039,8344.424183,-11
1643454159039,8344.424186,21
1643454159039,8344.4241889,4
1643454159039,8344.4241919,-4
1643454159039,8345.018646,14
1643454159039,8345.0186649,-7
1643454159039,8345.0186688,-28
1643454159039,8345.018683,-7
1643454159039,8345.0186877,7
1643454159039,8345.0186908,9
1643454159060,8345.0186937,4
1643454159060,8345.0186966,4
1643454159060,8345.0186996,-9
1643454159060,8345.0187027,-45
1643454159060,8345.018706,-30
1643454159060,8345.0187089,-11
1643454159060,8345.0187234,-40
1643454159060,8345.0187279,-61
1643454159060,8345.0187308,-47
1643454159060,8345.0187338,-26
1643454159082,8345.0187367,-42
1643454159082,8345.0187396,-49
1643454159082,8345.0187495,7
1643454159082,8345.0187553,35
1643454159082,8345.0187584,21
1643454159082,8345.0187614,38
1643454159082,8345.0187643,2
1643454159082,8345.0187676,-66
1643454159082,8345.0187716,-33
1643454159082,8345.0187745,57
1643454159108,8345.0187773,54
1643454159108,8345.0187801,-21
1643454159108,8345.018783,-42
1643454159108,8345.0187859,-19
1643454159108,8345.0187887,97
1643454159108,8345.0187916,534
1643454159108,8345.0187944,1052
1643454159108,8345.0187972,926
1643454159108,8345.0188001,-11
1643454159108,8345.018803,-731
1643454159128,8345.0188058,-399
1643454159128,8345.0188087,71
1643454159128,8345.0188115,-33
1643454159128,8345.0188144,-83
1643454159128,8345.0188176,54
1643454159128,8345.0188205,11
1643454159128,8345.0188234,-64
1643454159128,8345.0188263,-11
1643454159128,8345.0188291,35
1643454159128,8345.0188319,26
1643454159149,8345.0188347,14
1643454159149,8345.0188376,19
1643454159149,8345.0188455,35
1643454159149,8345.0188656,54
1643454159149,8345.0188716,57
1643454159149,8345.0188746,61
1643454159149,8345.0188775,57
1643454159149,8345.0188804,61
1643454159149,8345.0188832,111
1643454159149,8345.018886,130
1643454159171,8345.0188889,114
1643454159171,8345.0188917,147
1643454159171,8345.0188945,204
1643454159171,8345.0189256,178
1643454159527,8345.0189426,95
1643454159527,8345.0189472,76
1643454159527,8345.0189504,109
1643454159527,8345.0189533,102
1643454159527,8345.0189563,66
1643454159527,8345.0189592,40
1643454159527,8345.0189683,7
1643454159527,8345.0189727,4
1643454159527,8345.0189757,9
1643454159527,8345.0189787,-47
1643454159549,8345.0189816,-87
1643454159549,8345.0189845,-47
1643454159549,8345.0189897,-4
1643454159549,8345.5237825,-19
1643454159549,8345.5237962,-54
1643454159549,8345.5238029,-45
1643454159549,8345.5238084,0
1643454159549,8345.5238117,2
1643454159549,8345.5238164,-52
1643454159549,8345.523822,-64
1643454159571,8345.5238268,-33
1643454159571,8345.5238299,-52
1643454159571,8345.5238354,-68
1643454159571,8345.5238402,-45
1643454159571,8345.5238445,-45
1643454159571,8345.5238476,-38
1643454159571,8345.5238506,-9
1643454159571,8345.5238535,-26
1643454159571,8345.5238565,-16
1643454159571,8345.5238594,9
1643454159595,8345.5238624,-47
1643454159595,8345.5238653,-80
1643454159595,8345.5238683,-28
1643454159595,8345.5238713,0
1643454159595,8345.5238743,-2
1643454159595,8345.5238772,-16
1643454159595,8345.5238801,-35
1643454159595,8345.5238831,-9
1643454159595,8345.5238863,26
1643454159595,8345.5238894,-4
1643454159620,8345.5238935,-57
1643454159620,8345.5238967,-47
1643454159620,8345.5239017,0
1643454159620,8345.5239048,21
1643454159620,8345.523908,9
1643454159620,8345.5239126,-9
1643454159620,8345.5239157,-2
1643454159620,8345.5239187,21
1643454159620,8345.5239217,9
1643454159620,8345.5239246,-40
1643454159640,8345.5239276,-40
1643454159640,8345.5239305,2
1643454159640,8345.5239335,-16
1643454159640,8345.5239365,-45
1643454159640,8345.5239395,4
1643454159640,8345.5239425,16
1643454159640,8345.5239455,-16
1643454159640,8345.5239489,33
1643454159640,8345.5239519,83
1643454159640,8345.523955,52
1643454159661,8345.5239579,26
1643454159661,8345.5239619,21
1643454159661,8345.5239648,19
1643454159661,8345.5239678,16
1643454159661,8345.5239708,-26
1643454159661,8345.5239745,-54
1643454159661,8345.5239777,76
1643454159661,8345.5239808,470
1643454159661,8345.5239839,931
1643454159661,8345.5239869,936
1643454159682,8345.5239899,173
1643454159682,8345.5239929,-653
1643454159682,8345.5239958,-570
1643454159682,8345.5239988,-21
1643454160082,8345.5240084,64
1643454160082,8345.5240127,-76
1643454160082,8345.5240167,-2
1643454160082,8345.5240199,83
1643454160082,8345.524023,35
1643454160082,8345.5240259,-2
1643454160082,8345.5240289,-7
1643454160082,8345.5240319,-2
1643454160082,8345.5240348,54
1643454160082,8345.5240378,97
1643454160107,8345.5240407,38
1643454160107,8345.5240437,14
1643454160107,8346.0736846,85
1643454160107,8346.0736978,97
1643454160107,8346.0737032,54
1643454160107,8346.0737089,92
1643454160107,8346.0737136,149
1643454160107,8346.0737178,95
1643454160107,8346.0737209,47
1643454160107,8346.0737259,111
1643454160128,8346.0737306,156
1643454160128,8346.0737355,106
1643454160128,8346.0737384,83
1643454160128,8346.0737415,128
1643454160128,8346.0737457,123
1643454160128,8346.0737488,33
1643454160128,8346.0737538,14
1643454160128,8346.0737578,61
1643454160128,8346.0737618,4
1643454160128,8346.073765,-61
1643454160149,8346.0737699,-14
1643454160149,8346.0737737,-30
1643454160149,8346.073779,-97
1643454160149,8346.0737837,-38
1643454160149,8346.0737887,-14
1643454160149,8346.0737917,-116
1643454160149,8346.0737948,-135
1643454160149,8346.0737987,-28
1643454160149,8346.0738018,9
1643454160149,8346.0738066,-45
1643454160170,8346.0738108,-40
1643454160170,8346.0738155,-4
1643454160170,8346.0738201,-54
1643454160170,8346.073825,-73
1643454160170,8346.0738299,14
1643454160170,8346.0738351,33
1643454160170,8346.0738397,-16
1643454160170,8346.0738445,-9
1643454160170,8346.0738476,2
1643454160170,8346.0738508,-33
1643454160193,8346.0738557,-23
1643454160193,8346.0738587,40
1643454160193,8346.0738621,35
1643454160193,8346.0738662,-26
1643454160193,8346.0738693,-21
1643454160193,8346.0738742,21
1643454160193,8346.0738772,2
1643454160193,8346.0738805,4
1643454160193,8346.0738853,80
1643454160193,8346.0738903,54
1643454160216,8346.0738952,-28
1643454160216,8346.0738984,23
1643454160216,8346.0739032,68
1643454160216,8346.0739082,7
1643454160216,8346.0739131,2
1643454160216,8346.0739174,33
1643454160216,8346.0739221,0
1643454160216,8346.0739252,-45
1643454160216,8346.0739303,-19
1643454160216,8346.0739335,38
1643454160238,8346.0739383,28
1643454160238,8346.0739429,7
1643454160238,8346.0739476,49
1643454160238,8346.0739505,64
1643454160727,8346.0739537,11
1643454160727,8346.0739567,14
1643454160727,8346.0739596,64
1643454160727,8346.0739625,21
1643454160727,8346.0739654,-35
1643454160727,8346.0739684,11
1643454160727,8346.0739713,87
1643454160727,8346.0739742,116
1643454160727,8346.0739772,68
1643454160727,8346.0739801,-9
1643454160749,8346.073983,2
1643454160749,8346.7248223,35
1643454160749,8346.7248368,-30
1643454160749,8346.7248407,-28
1643454160749,8346.724844,73
1643454160749,8346.7248471,14
1643454160749,8346.7248502,-42
1643454160749,8346.7248534,351
1643454160749,8346.7248564,948
1643454160749,8346.7248595,1062
1643454160771,8346.7248625,406
1643454160771,8346.7248655,-541
1643454160771,8346.7248686,-786
1643454160771,8346.7248716,-320
1643454160771,8346.7248746,-33
1643454160771,8346.7248775,-38
1643454160771,8346.7248805,-23
1643454160771,8346.7248835,16
1643454160771,8346.7248866,11
1643454160771,8346.7248896,-35
1643454160802,8346.7248926,-19
1643454160802,8346.7248955,71
1643454160802,8346.7248985,59
1643454160802,8346.7249021,-26
1643454160802,8346.7249051,9
1643454160802,8346.7249081,64
1643454160802,8346.7249111,30
1643454160802,8346.7249141,54
1643454160802,8346.724917,114
1643454160802,8346.7249203,73
1643454160821,8346.7249233,42
1643454160821,8346.7249263,133
1643454160821,8346.7249293,166
1643454160821,8346.7249324,68
1643454160821,8346.7249353,73
1643454160821,8346.7249383,149
1643454160821,8346.7249412,106
1643454160821,8346.7249442,104
1643454160821,8346.7249472,192
1643454160821,8346.7249501,137
1643454160840,8346.7249531,26
1643454160840,8346.7249561,14
1643454160840,8346.724959,9
1643454160840,8346.724962,-16
1643454160840,8346.7249649,-11
1643454160840,8346.7249679,-23
1643454160840,8346.7249709,-76
1643454160840,8346.724974,-90
1643454160840,8346.7249771,-68
1643454160840,8346.7249801,-64
1643454160861,8346.7249835,-66
1643454160861,8346.7251373,-61
1643454160861,8346.7251423,-28
1643454160861,8346.7253183,-35
1643454160861,8346.7253266,-92
1643454160861,8346.7253304,-35
1643454160861,8346.7253338,73
1643454160861,8346.7253459,-9
1643454160861,8346.7253588,-104
1643454160861,8346.7253624,40
1643454160883,8346.7253655,140
1643454160883,8346.7253686,35
1643454160883,8346.7253715,-35
1643454160883,8346.7253746,-7
1643454161292,8346.725378,9
1643454161292,8346.7253813,0
1643454161292,8346.7253843,-4
1643454161292,8346.7253873,-9
1643454161292,8346.7253903,38
1643454161292,8346.7253934,73
1643454161292,8346.7253964,23
1643454161292,8346.7253994,9
1643454161292,8346.7254023,45
1643454161292,8346.7254054,47
1643454161328,8347.2737271,23
1643454161328,8347.2737379,-7
1643454161328,8347.2737414,-35
1643454161328,8347.2737444,-16
1643454161328,8347.2737473,11
1643454161328,8347.2737514,-2
1643454161328,8347.2737544,19
1643454161328,8347.2737575,104
1643454161328,8347.2737605,109
1643454161328,8347.2737663,19
1643454161361,8347.2737709,-14
1643454161361,8347.2737741,16
1643454161361,8347.2737893,0
1643454161361,8347.2737935,-33
1643454161361,8347.2737966,-23
1643454161361,8347.2738005,-52
1643454161361,8347.2738036,-97
1643454161361,8347.2738092,-85
1643454161361,8347.2738144,-49
1643454161361,8347.273819,190
1643454161392,8347.273822,727
1643454161392,8347.2738261,1083
1643454161392,8347.2738308,643
1643454161392,8347.273834,-387
1643454161392,8347.273839,-857
1643454161392,8347.2738421,-411
1643454161392,8347.2738476,-26
1643454161392,8347.2738507,-59
1643454161392,8347.2738555,-54
1643454161392,8347.273859,0
1643454161428,8347.2738621,-16
1643454161428,8347.2738698,-9
1643454161428,8347.2738729,14
1643454161428,8347.2738761,16
1643454161428,8347.273879,26
1643454161428,8347.2738818,40
1643454161428,8347.2738849,52
1643454161428,8347.2738889,40
1643454161428,8347.2738918,4
1643454161428,8347.2738947,0
1643454161460,8347.2738978,57
1643454161460,8347.2739016,99
1643454161460,8347.2739045,95
1643454161460,8347.2739074,71
1643454161460,8347.2739104,80
1643454161460,8347.2739142,140
1643454161460,8347.2739172,175
1643454161460,8347.273922,144
1643454161460,8347.2739249,130
1643454161460,8347.273928,161
1643454161493,8347.2739328,140
1643454161493,8347.2739374,80
1643454161493,8347.2739421,73
1643454161493,8347.2739463,68
1643454161493,8347.273951,16
1643454161493,8347.2739558,-33
1643454161493,8347.2739603,-49
1643454161493,8347.2739641,-47
1643454161493,8347.2739689,-42
1643454161493,8347.2739727,-64
1643454161528,8347.2739775,-59
1643454161528,8347.2739813,-11
1643454161528,8347.2739861,-7
1643454161528,8347.273991,-42
1643454161830,8347.2739957,-42
1643454161830,8347.2739987,-23
1643454161830,8347.2740016,-26
1643454161830,8347.2740045,-23
1643454161830,8347.2740073,-7
1643454161830,8347.2740101,-4
1643454161830,8347.2740129,-9
1643454161830,8347.2740158,0
1643454161830,8347.2740187,26
