unixTime,lslTime,ECG
1643363198065,1208.2428141,0
1643363198065,1208.2428169,11
1643363198065,1208.2428198,11
1643363198065,1208.2428226,11
1643363198065,1208.2428254,23
1643363198065,1208.2428282,40
1643363198065,1208.2428309,49
1643363198065,1208.2428338,57
1643363198065,1208.2428367,64
1643363198065,1208.2428395,80
1643363198087,1208.2428424,97
1643363198087,1208.2428452,104
1643363198087,1208.242848,102
1643363198087,1208.2428508,97
1643363198087,1208.2428536,109
1643363198087,1208.2428563,116
1643363198087,1208.2428592,109
1643363198087,1208.796393,95
1643363198087,1208.7964048,71
1643363198087,1208.7964084,40
1643363198113,1208.7964115,14
1643363198113,1208.7964144,-9
1643363198113,1208.7964173,-30
1643363198113,1208.7964202,-40
1643363198113,1208.796423,-47
1643363198113,1208.7964259,-59
1643363198113,1208.7964288,-57
1643363198113,1208.7964317,-49
1643363198113,1208.7964346,-45
1643363198113,1208.7964374,-28
1643363198135,1208.7964403,-19
1643363198135,1208.7964431,-33
1643363198135,1208.7964469,-40
1643363198135,1208.796477,-33
1643363198558,1208.7964847,-40
1643363198558,1208.7964881,-40
1643363198558,1208.7964912,-28
1643363198558,1208.796494,-28
1643363198558,1208.7964968,-42
1643363198558,1208.7964996,-52
1643363198558,1208.7965024,-49
1643363198558,1208.7965054,-49
1643363198558,1208.7965081,-54
1643363198558,1208.7965109,-49
1643363198584,1208.7965137,-38
1643363198584,1208.7965165,-40
1643363198584,1208.7965193,-40
1643363198584,1208.7965221,-33
1643363198584,1208.7965249,-35
1643363198584,1208.7965276,-35
1643363198584,1208.7965305,-30
1643363198584,1208.7965333,-38
1643363198584,1208.7965554,-38
1643363198584,1208.7966078,-33
1643363198608,1208.7966127,-19
1643363198608,1208.7966157,0
1643363198608,1208.7966187,11
1643363198608,1208.7966215,14
1643363198608,1208.7966243,14
1643363198608,1208.7966271,2
1643363198608,1208.7966301,-14
1643363198608,1208.7966329,-16
1643363198608,1208.7966359,-7
1643363198608,1208.7966387,-9
1643363198633,1208.7966415,-11
1643363198633,1208.7966443,4
1643363198633,1208.7966471,19
1643363198633,1208.7966499,11
1643363198633,1208.7966527,-7
1643363198633,1208.7966555,23
1643363198633,1208.7966583,147
1643363198633,1208.7966612,427
1643363198633,1208.7966641,836
1643363198633,1208.796667,960
1643363198658,1208.7966698,499
1643363198658,1208.7966728,-54
1643363198658,1208.7966768,-125
1643363198658,1208.7966799,7
1643363198658,1208.796683,-45
1643363198658,1208.7966861,-109
1643363198658,1208.7966902,-64
1643363198658,1208.7966941,-47
1643363198658,1208.7966972,-66
1643363198658,1208.7967003,-54
1643363198683,1208.7967033,-38
1643363198683,1208.7967063,-38
1643363198683,1208.7967093,-40
1643363198683,1208.7967123,-40
1643363198683,1208.7967153,-35
1643363198683,1208.7967184,-23
1643363198683,1209.3918008,-21
1643363198683,1209.3918137,-19
1643363198683,1209.391817,-7
1643363198683,1209.3918201,7
1643363198709,1209.3918241,21
1643363198709,1209.391827,35
1643363198709,1209.3918299,40
1643363198709,1209.3918327,40
1643363198709,1209.3918355,57
1643363198709,1209.3918386,73
1643363198709,1209.3918414,83
1643363198709,1209.3918441,87
1643363198709,1209.3918469,83
1643363198709,1209.3918497,64
1643363198733,1209.3918547,61
1643363198733,1209.3918574,73
1643363198733,1209.3918603,68
1643363198733,1209.3918632,42
1643363199112,1209.3918661,19
1643363199112,1209.3918689,-4
1643363199112,1209.3918716,-30
1643363199112,1209.3918743,-54
1643363199112,1209.3918771,-68
1643363199112,1209.3918798,-64
1643363199112,1209.3918824,-54
1643363199112,1209.3918851,-57
1643363199112,1209.3918878,-49
1643363199112,1209.3918905,-33
1643363199144,1209.3918931,-28
1643363199144,1209.3918958,-28
1643363199144,1209.3918985,-19
1643363199144,1209.3919014,-14
1643363199144,1209.3919042,-16
1643363199144,1209.391907,-21
1643363199144,1209.3919099,-21
1643363199144,1209.3919127,-21
1643363199144,1209.3919155,-26
1643363199144,1209.3919184,-30
1643363199176,1209.3919214,-30
1643363199176,1209.3919253,-38
1643363199176,1209.3919282,-52
1643363199176,1209.3919312,-52
1643363199176,1209.3919349,-45
1643363199176,1209.3919378,-47
1643363199176,1209.3919406,-52
1643363199176,1209.3919435,-47
1643363199176,1209.3919483,-45
1643363199176,1209.391953,-45
1643363199210,1209.391957,-42
1643363199210,1209.3919599,-47
1643363199210,1209.3919627,-57
1643363199210,1209.3919656,-59
1643363199210,1209.3919684,-42
1643363199210,1209.3919712,-21
1643363199210,1209.391974,-4
1643363199210,1209.3919768,2
1643363199210,1209.3919796,-7
1643363199210,1209.3919824,-30
1643363199241,1209.3919852,-40
1643363199241,1209.391988,-35
1643363199241,1209.3919908,-33
1643363199241,1209.3919936,-35
1643363199241,1209.3919965,-40
1643363199241,1209.3919993,-45
1643363199241,1209.3920021,-38
1643363199241,1209.3920049,-30
1643363199241,1209.3920076,-33
1643363199241,1209.3920104,-16
1643363199276,1209.3920132,90
1643363199276,1209.3920161,377
1643363199276,1209.3920189,781
1643363199276,1209.3920217,891
1643363199276,1209.3920246,427
1643363199276,1209.9454594,-76
1643363199276,1209.9454721,-111
1643363199276,1209.9454753,-14
1643363199276,1209.9454784,-80
1643363199276,1209.9454811,-123
1643363199309,1209.9454838,-104
1643363199309,1209.9454865,-118
1643363199309,1209.9454893,-118
1643363199309,1209.9454929,-95
1643363199309,1209.9454969,-83
1643363199309,1209.9455014,-80
1643363199309,1209.9455041,-78
1643363199309,1209.9455068,-83
1643363199309,1209.9455095,-76
1643363199309,1209.9455122,-59
1643363199342,1209.9455162,-52
1643363199342,1209.9455191,-38
1643363199342,1209.945522,-19
1643363199342,1209.9455249,-14
1643363199675,1209.9455277,-14
1643363199675,1209.9455306,0
1643363199675,1209.9455333,19
1643363199675,1209.945536,40
1643363199675,1209.9455386,57
1643363199675,1209.9455413,59
1643363199675,1209.945544,66
1643363199675,1209.9455467,78
1643363199675,1209.9455494,78
1643363199675,1209.9455521,76
1643363199710,1209.9455548,83
1643363199710,1209.9455575,85
1643363199710,1209.9455602,80
1643363199710,1209.9455629,57
1643363199710,1209.9455655,23
1643363199710,1209.9455682,-4
1643363199710,1209.945571,-28
1643363199710,1209.9455737,-45
1643363199710,1209.9455765,-52
1643363199710,1209.9455793,-54
1643363199741,1209.9455819,-52
1643363199741,1209.9455846,-42
1643363199741,1209.9455873,-35
1643363199741,1209.9455899,-35
1643363199741,1209.9455926,-28
1643363199741,1209.9455956,-23
1643363199741,1209.9455989,-19
1643363199741,1209.9456311,-14
1643363199741,1209.945648,-7
1643363199741,1209.9456525,-4
1643363199777,1209.9456555,-2
1643363199777,1209.9456586,-4
1643363199777,1209.9456613,-14
1643363199777,1209.945664,-11
1643363199777,1209.9456668,-11
1643363199777,1209.9456695,-26
1643363199777,1209.9456722,-45
1643363199777,1209.9456748,-45
1643363199777,1209.9456775,-40
1643363199777,1209.9456802,-42
1643363199811,1209.9456828,-47
1643363199811,1209.9456855,-42
1643363199811,1209.9456882,-38
1643363199811,1209.9456909,-40
1643363199811,1209.9456935,-38
1643363199811,1209.9456962,-23
1643363199811,1209.9456988,-7
1643363199811,1209.9457016,0
1643363199811,1209.9457045,-11
1643363199811,1209.945708,-28
1643363199848,1209.945711,-38
1643363199848,1209.9457139,-40
1643363199848,1209.9457168,-42
1643363199848,1209.9457196,-38
1643363199848,1210.495805,-23
1643363199848,1210.4958174,-19
1643363199848,1210.4958215,-28
1643363199848,1210.4958265,-33
1643363199848,1210.4958312,-30
1643363199848,1210.4958361,-11
1643363199888,1210.4958407,106
1643363199888,1210.4958457,437
1643363199888,1210.4958501,857
1643363199888,1210.4958548,895
1643363199888,1210.4958577,349
1643363199888,1210.4958607,-133
1643363199888,1210.4958645,-95
1643363199888,1210.4958674,4
1643363199888,1210.4958721,-80
1643363199888,1210.4958758,-97
1643363199928,1210.4958807,-66
1643363199928,1210.4958851,-97
1643363199928,1210.4958903,-104
1643363199928,1210.4958933,-71
1643363200283,1210.4958979,-71
1643363200283,1210.4959016,-76
1643363200283,1210.4959044,-61
1643363200283,1210.4959071,-49
1643363200283,1210.4959099,-40
1643363200283,1210.4959126,-38
1643363200283,1210.4959153,-35
1643363200283,1210.495918,-23
1643363200283,1210.4959208,-7
1643363200283,1210.4959236,4
1643363200320,1210.4959263,19
1643363200320,1210.495929,35
1643363200320,1210.4959317,45
1643363200320,1210.4959344,57
1643363200320,1210.4959371,71
1643363200320,1210.4959398,78
1643363200320,1210.4959425,83
1643363200320,1210.4959452,85
1643363200320,1210.4959479,78
1643363200320,1210.4959513,78
1643363200362,1210.4959543,83
1643363200362,1210.4959572,80
1643363200362,1210.4959601,64
1643363200362,1210.495964,42
1643363200362,1210.4959669,21
1643363200362,1210.4959707,9
1643363200362,1210.4959745,-2
1643363200362,1210.4959775,-19
1643363200362,1210.4959824,-40
1643363200362,1210.4959852,-45
1643363200398,1210.4959882,-30
1643363200398,1210.4959911,-19
1643363200398,1210.495994,-11
1643363200398,1210.4959988,-9
1643363200398,1210.4960016,-9
1643363200398,1210.4960044,-4
1643363200398,1210.4960074,0
1643363200398,1210.4960112,2
1643363200398,1210.4960141,2
1643363200398,1210.4960169,-7
1643363200440,1210.4960199,-7
1643363200440,1210.4960247,-2
1643363200440,1210.4960291,-14
1643363200440,1210.496034,-19
1643363200440,1210.496037,-11
1643363200440,1210.4960408,-14
1643363200440,1210.4960437,-21
1643363200440,1210.4960465,-21
1643363200440,1210.4960493,-16
1643363200440,1210.4960522,-21
1643363200479,1210.4960553,-21
1643363200479,1210.4960599,-21
1643363200479,1210.4960646,-28
1643363200479,1211.0946465,-30
1643363200479,1211.0946587,-21
1643363200479,1211.0946622,-4
1643363200479,1211.0946671,11
1643363200479,1211.0946699,23
1643363200479,1211.0946728,21
1643363200479,1211.0946766,-2
1643363200521,1211.0946796,-21
1643363200521,1211.0946825,-33
1643363200521,1211.0946882,-45
1643363200521,1211.0946922,-47
1643363200521,1211.0946974,-35
1643363200521,1211.0947019,-28
1643363200521,1211.0947067,-30
1643363200521,1211.0947108,-42
1643363200521,1211.0947156,-61
1643363200521,1211.0947195,-73
1643363200562,1211.0947241,-16
1643363200562,1211.0947277,206
1643363200562,1211.0947325,651
1643363200562,1211.0947355,1002
1643363200724,1211.0947393,729
1643363200724,1211.0947421,57
1643363200724,1211.0947449,-204
1643363200724,1211.0947476,-49
1643363200724,1211.0947502,-45
1643363200724,1211.0947529,-140
1643363200724,1211.0947556,-109
1643363200724,1211.0947582,-80
1643363200724,1211.0947611,-102
1643363200724,1211.0947638,-92
1643363200765,1211.0947664,-78
1643363200765,1211.0947691,-78
1643363200765,1211.0947721,-64
1643363200765,1211.094775,-49
1643363200765,1211.0947778,-47
1643363200765,1211.0947807,-40
1643363200765,1211.0947835,-30
1643363200765,1211.0947864,-16
1643363200765,1211.0947892,-9
1643363200765,1211.094792,-9
1643363200809,1211.0947949,-7
1643363200809,1211.0947977,4
1643363200809,1211.0948006,16
1643363200809,1211.0948034,30
1643363200809,1211.0948063,47
1643363200809,1211.0948103,61
1643363200809,1211.0948131,66
1643363200809,1211.0948159,66
1643363200809,1211.0948188,64
1643363200809,1211.0948216,66
1643363200846,1211.0948244,66
1643363200846,1211.0948274,61
1643363200846,1211.0948302,57
1643363200846,1211.0948341,45
1643363200846,1211.0948369,21
1643363200846,1211.0948397,2
1643363200846,1211.0948426,-11
1643363200846,1211.0948454,-23
1643363200846,1211.0948483,-30
1643363200846,1211.0948512,-33
1643363200883,1211.094855,-40
1643363200883,1211.0948579,-30
1643363200883,1211.094862,-14
1643363200883,1211.0948649,-9
1643363200883,1211.0948677,-4
1643363200883,1211.0948707,0
1643363200883,1211.0948735,-4
1643363200883,1211.0948763,-7
1643363200883,1211.0948792,2
1643363200883,1211.0948821,9
1643363200922,1211.0948869,7
1643363200922,1211.0948897,7
1643363200922,1211.5470454,9
1643363200922,1211.547084,9
1643363200922,1211.5470919,4
1643363200922,1211.5470955,-2
1643363200922,1211.5470984,-4
1643363200922,1211.547101,-4
1643363200922,1211.5471037,-11
1643363200922,1211.5471063,-14
1643363200960,1211.547109,-14
1643363200960,1211.5471116,-14
1643363200960,1211.5471142,-14
1643363200960,1211.5471169,-11
1643363200960,1211.5471195,-11
1643363200960,1211.5471222,-19
1643363200960,1211.5471248,-28
1643363200960,1211.5471275,-26
1643363200960,1211.5471301,-16
1643363200960,1211.5471328,0
1643363200998,1211.5471355,14
1643363200998,1211.5471381,14
1643363200998,1211.5471408,-7
1643363200998,1211.5471434,-30
1643363201284,1211.5471461,-33
1643363201284,1211.5471487,-30
1643363201284,1211.5471513,-28
1643363201284,1211.547154,-26
1643363201284,1211.5471566,-30
1643363201284,1211.5471592,-35
1643363201284,1211.5471618,-30
1643363201284,1211.5471645,-26
1643363201284,1211.5471671,-28
1643363201284,1211.5471697,-9
1643363201317,1211.5471724,97
1643363201317,1211.5471751,418
1643363201317,1211.5471777,907
1643363201317,1211.5471804,1045
1643363201317,1211.5471831,487
1643363201317,1211.5471857,-111
1643363201317,1211.5471883,-128
1643363201317,1211.547191,-2
1643363201317,1211.5471939,-90
1643363201317,1211.5471967,-128
1643363201351,1211.5471993,-73
1643363201351,1211.547202,-73
1643363201351,1211.5472046,-83
1643363201351,1211.5472073,-59
1643363201351,1211.5472099,-54
1643363201351,1211.5472126,-66
1643363201351,1211.5472152,-59
1643363201351,1211.5472178,-35
1643363201351,1211.5472204,-16
1643363201351,1211.547223,-9
1643363201384,1211.5472257,0
1643363201384,1211.5472283,7
1643363201384,1211.5472309,7
1643363201384,1211.5472335,16
1643363201384,1211.5472362,35
1643363201384,1211.5472388,59
1643363201384,1211.5472414,80
1643363201384,1211.5472445,78
1643363201384,1211.5472472,78
1643363201384,1211.5472498,92
1643363201417,1211.5472524,99
1643363201417,1211.547255,104
1643363201417,1211.5472577,109
1643363201417,1211.5472603,106
1643363201417,1211.5472629,99
1643363201417,1211.5472657,95
1643363201417,1211.5472684,95
1643363201417,1211.547271,87
1643363201417,1211.5472737,66
1643363201417,1211.5472763,38
1643363201452,1211.547279,19
1643363201452,1212.0974294,11
1643363201452,1212.0974419,7
1643363201452,1212.0974453,2
1643363201452,1212.0974501,9
1643363201452,1212.0974531,21
1643363201452,1212.0974569,16
1643363201452,1212.0974601,-7
1643363201452,1212.0974645,-11
1643363201452,1212.0974673,0
1643363201484,1212.0974702,4
1643363201484,1212.0974731,4
1643363201484,1212.0974778,7
1643363201484,1212.0974819,19
1643363201484,1212.0974864,38
1643363201484,1212.0974906,57
1643363201484,1212.0974952,52
1643363201484,1212.0974994,19
1643363201484,1212.0975039,0
1643363201484,1212.0975081,11
1643363201518,1212.0975126,11
1643363201518,1212.0975154,7
1643363201518,1212.0975182,11
1643363201518,1212.097522,11
1643363201921,1212.0975249,2
1643363201921,1212.0975276,-9
1643363201921,1212.0975303,-26
1643363201921,1212.097533,-40
1643363201921,1212.0975356,-42
1643363201921,1212.0975383,-40
1643363201921,1212.097541,-40
1643363201921,1212.0975436,-45
1643363201921,1212.0975462,-49
1643363201921,1212.0975489,-54
1643363201950,1212.0975515,-57
1643363201950,1212.0975542,-49
1643363201950,1212.0975568,-28
1643363201950,1212.0975596,-14
1643363201950,1212.0975624,-16
1643363201950,1212.0975652,-21
1643363201950,1212.097568,-28
1643363201950,1212.0975708,-45
1643363201950,1212.0975737,-54
1643363201950,1212.0975765,-47
1643363201978,1212.0975793,-40
1643363201978,1212.0975821,-38
1643363201978,1212.0975849,-33
1643363201978,1212.0975897,-26
1643363201978,1212.0975925,-19
1643363201978,1212.0975953,-35
1643363201978,1212.097598,-47
1643363201978,1212.0976009,19
1643363201978,1212.0976036,216
1643363201978,1212.0976065,596
1643363202005,1212.0976102,955
1643363202005,1212.097613,805
1643363202005,1212.0976159,185
1643363202005,1212.0976206,-166
1643363202005,1212.097625,-57
1643363202005,1212.0976296,-21
1643363202005,1212.0976332,-133
1643363202005,1212.0976378,-128
1643363202005,1212.0976416,-80
1643363202005,1212.0976461,-92
1643363202034,1212.0976503,-95
1643363202034,1212.0976551,-76
1643363202034,1212.0976597,-71
1643363202034,1212.0976642,-64
1643363202034,1212.0976687,-52
1643363202034,1212.0976732,-47
1643363202034,1212.0976777,-40
1643363202034,1212.0976823,-30
1643363202034,1212.0976864,-28
1643363202034,1212.0976911,-16
1643363202063,1212.7473219,-2
1643363202063,1212.7473686,9
1643363202063,1212.7473774,35
1643363202063,1212.7473809,49
1643363202063,1212.7473837,11
1643363202063,1212.7473864,-16
1643363202063,1212.7473891,16
1643363202063,1212.7473918,47
1643363202063,1212.7474038,47
1643363202063,1212.7474776,49
1643363202092,1212.747564,59
1643363202092,1212.7477229,66
1643363202092,1212.7477303,61
1643363202092,1212.7477335,47
1643363202092,1212.7477365,33
1643363202092,1212.7477393,14
1643363202092,1212.7477421,-7
1643363202092,1212.7477449,-21
1643363202092,1212.7477475,-40
1643363202092,1212.7477501,-61
1643363202123,1212.7477528,-66
1643363202123,1212.7477555,-57
1643363202123,1212.7477582,-57
1643363202123,1212.7477608,-66
1643363202536,1212.7477635,-54
1643363202536,1212.7477662,-30
1643363202536,1212.7477688,-23
1643363202536,1212.7477715,-23
1643363202536,1212.7477741,-2
1643363202536,1212.7477769,9
1643363202536,1212.7477795,-16
1643363202536,1212.7477822,-38
1643363202536,1212.7477849,-16
1643363202536,1212.7477876,4
1643363202564,1212.7477904,0
1643363202564,1212.747793,-7
1643363202564,1212.7477958,2
1643363202564,1212.7477985,4
1643363202564,1212.7478012,-7
1643363202564,1212.7478039,-11
1643363202564,1212.7478067,-9
1643363202564,1212.7478094,-11
1643363202564,1212.7478121,-16
1643363202564,1212.7478147,-11
1643363202595,1212.7478238,-16
1643363202595,1212.7478268,-16
1643363202595,1212.7478295,-2
1643363202595,1212.7478323,2
1643363202595,1212.7478352,-11
1643363202595,1212.747838,-23
1643363202595,1212.7478407,-28
1643363202595,1212.7478434,-21
1643363202595,1212.7478461,-4
1643363202595,1212.7478488,4
1643363202624,1212.7478515,2
1643363202624,1212.7478542,2
1643363202624,1212.7478569,-4
1643363202624,1212.7478598,-28
1643363202624,1212.7478625,-38
1643363202624,1212.7478652,-23
1643363202624,1212.7478679,4
1643363202624,1212.7478706,26
1643363202624,1212.7478734,42
1643363202624,1212.7478761,45
1643363202654,1212.7478788,11
1643363202654,1212.7478815,-26
1643363202654,1212.7478844,-26
1643363202654,1212.7478873,-14
1643363202654,1212.74789,-14
1643363202654,1212.7478927,-7
1643363202654,1212.7479207,11
1643363202654,1212.7479284,11
1643363202654,1212.7479383,-4
1643363202654,1213.3468146,-7
1643363202683,1213.3468273,0
1643363202683,1213.3468313,40
1643363202683,1213.346836,259
1643363202683,1213.34684,731
1643363202683,1213.346843,1078
1643363202683,1213.3468477,758
1643363202683,1213.3468505,106
1643363202683,1213.3468534,-111
1643363202683,1213.3468562,-7
1643363202683,1213.346859,-40
1643363202715,1213.3468618,-106
1643363202715,1213.3468646,-66
1643363202715,1213.3468674,-52
1643363202715,1213.3468702,-76
1643363202715,1213.346873,-78
1643363202715,1213.3468759,-83
1643363202715,1213.3468787,-92
1643363202715,1213.3468815,-85
1643363202715,1213.3468843,-76
1643363202715,1213.3468871,-71
1643363202745,1213.3468899,-61
1643363202745,1213.3468927,-49
1643363202745,1213.3468955,-35
1643363202745,1213.3468984,-19
1643363203030,1213.3469012,-4
1643363203030,1213.3469041,7
1643363203030,1213.3469068,9
1643363203030,1213.3469094,11
1643363203030,1213.3469122,40
1643363203030,1213.3469148,71
1643363203030,1213.3469175,78
1643363203030,1213.3469201,78
1643363203030,1213.3469228,80
1643363203030,1213.3469255,87
1643363203057,1213.3469282,87
1643363203057,1213.3469309,83
1643363203057,1213.3469335,85
1643363203057,1213.3469362,92
1643363203057,1213.346939,78
1643363203057,1213.3469418,35
1643363203057,1213.3469446,-9
1643363203057,1213.3469475,-26
1643363203057,1213.3469503,-26
1643363203057,1213.3469531,-40
1643363203087,1213.346956,-57
1643363203087,1213.3469598,-49
1643363203087,1213.3469626,-26
1643363203087,1213.3469655,-21
1643363203087,1213.3469683,-30
1643363203087,1213.3469711,-33
1643363203087,1213.3469739,-26
1643363203087,1213.3469767,-11
1643363203087,1213.3469795,4
1643363203087,1213.3469823,7
1643363203115,1213.3469851,4
1643363203115,1213.3469879,2
1643363203115,1213.3469917,-11
1643363203115,1213.3469946,-26
1643363203115,1213.3469974,-19
1643363203115,1213.3470002,-9
1643363203115,1213.3470031,-11
1643363203115,1213.3470059,-16
1643363203115,1213.3470113,-11
1643363203115,1213.3470161,0
1643363203147,1213.3470188,-2
1643363203147,1213.3470217,-26
1643363203147,1213.3470245,-38
1643363203147,1213.3470274,-26
1643363203147,1213.3470689,-16
1643363203147,1213.3470773,-14
1643363203147,1213.3470807,-16
1643363203147,1213.3470836,-19
1643363203147,1213.8467684,-11
1643363203147,1213.8467802,-2
1643363203175,1213.8467843,-7
1643363203175,1213.8467893,-35
1643363203175,1213.8467921,-49
1643363203175,1213.8467951,-30
1643363203175,1213.846798,-21
1643363203175,1213.8468008,-38
1643363203175,1213.8468037,-38
1643363203175,1213.8468065,-35
1643363203175,1213.8468094,-35
1643363203175,1213.8468123,-11
1643363203206,1213.8468152,11
1643363203206,1213.8468181,4
1643363203206,1213.846821,-14
1643363203206,1213.846824,-21
1643363203206,1213.8468268,-23
1643363203206,1213.8468297,-21
1643363203206,1213.8468326,-14
1643363203206,1213.8468353,-14
1643363203206,1213.8468382,-16
1643363203206,1213.8468411,-40
1643363203237,1213.8468439,-68
1643363203237,1213.8468468,-59
1643363203237,1213.8468496,-35
1643363203237,1213.8468524,-33
1643363203574,1213.8468553,7
1643363203574,1213.8468582,199
1643363203574,1213.8468609,634
1643363203574,1213.8468636,1045
1643363203574,1213.8468663,860
1643363203574,1213.8468689,173
1643363203574,1213.8468716,-182
1643363203574,1213.8468743,-54
1643363203574,1213.846877,-16
1643363203574,1213.8468796,-109
1643363203606,1213.8468823,-85
1643363203606,1213.846885,-52
1643363203606,1213.8468877,-99
1643363203606,1213.8468903,-99
1643363203606,1213.846893,-57
1643363203606,1213.8468957,-54
1643363203606,1213.8468984,-64
1643363203606,1213.8469012,-49
1643363203606,1213.8469041,-26
1643363203606,1213.846907,-14
1643363203639,1213.8469099,-14
1643363203639,1213.8469127,-16
1643363203639,1213.8469167,-11
1643363203639,1213.8469196,7
1643363203639,1213.8469225,28
1643363203639,1213.8469254,40
1643363203639,1213.8469281,52
1643363203639,1213.8469309,71
1643363203639,1213.8469337,87
1643363203639,1213.8469366,99
1643363203672,1213.8469395,109
1643363203672,1213.8469424,106
1643363203672,1213.8469453,104
1643363203672,1213.8469481,106
1643363203672,1213.846951,102
1643363203672,1213.8469539,97
1643363203672,1213.8469568,95
1643363203672,1213.8469597,83
1643363203672,1213.8469625,61
1643363203672,1213.8469653,33
1643363203703,1213.8469681,2
1643363203703,1213.8469709,-26
1643363203703,1213.8469738,-54
1643363203703,1213.8469766,-71
1643363203703,1213.8469794,-71
1643363203703,1213.8469823,-61
1643363203703,1213.8469852,-49
1643363203703,1214.3967372,-45
1643363203703,1214.3967493,-42
1643363203703,1214.3967528,-28
1643363203734,1214.3967733,-19
1643363203734,1214.3967829,-19
1643363203734,1214.3967871,-11
1643363203734,1214.3967901,-7
1643363203734,1214.396793,-14
1643363203734,1214.3967958,-19
1643363203734,1214.3967986,-19
1643363203734,1214.3968015,-19
1643363203734,1214.3968044,-11
1643363203734,1214.3968073,-16
1643363203767,1214.3968101,-54
1643363203767,1214.3968129,-71
1643363203767,1214.3968157,-52
1643363203767,1214.3968186,-52
1643363203767,1214.3968213,-64
1643363203767,1214.3968242,-64
1643363203767,1214.3968287,-61
1643363203767,1214.3968316,-64
1643363203767,1214.3968345,-54
1643363203767,1214.3968374,-47
1643363203799,1214.3968409,-57
1643363203799,1214.3968459,-57
1643363203799,1214.3968486,-47
1643363203799,1214.3968514,-52
1643363204127,1214.3968543,-57
1643363204127,1214.396857,-42
1643363204127,1214.3968597,-38
1643363204127,1214.3968624,-42
1643363204127,1214.3968651,-35
1643363204127,1214.3968677,-38
1643363204127,1214.3968704,-45
1643363204127,1214.3968731,-26
1643363204127,1214.3968757,-26
1643363204127,1214.3968784,-57
1643363204157,1214.396881,-42
1643363204157,1214.3968837,-4
1643363204157,1214.3968864,-2
1643363204157,1214.3968892,0
1643363204157,1214.3968919,16
1643363204157,1214.3968946,9
1643363204157,1214.3968991,-11
1643363204157,1214.3969032,-9
1643363204157,1214.3969069,0
1643363204157,1214.3969098,-9
1643363204189,1214.3969126,-21
1643363204189,1214.3969154,-7
1643363204189,1214.3969182,9
1643363204189,1214.396921,9
1643363204189,1214.3969239,0
1643363204189,1214.3969268,4
1643363204189,1214.3969296,61
1643363204189,1214.3969324,263
1643363204189,1214.3969352,689
1643363204189,1214.3969382,1071
1643363204220,1214.396941,867
1643363204220,1214.3969438,178
1643363204220,1214.3969465,-168
1643363204220,1214.3969494,-42
1643363204220,1214.3969522,-14
1643363204220,1214.3969551,-104
1643363204220,1214.3969579,-76
1643363204220,1214.3969607,-49
1643363204220,1214.3969646,-78
1643363204220,1214.3969675,-66
1643363204250,1214.3969703,-40
1643363204250,1214.3969732,-45
1643363204250,1214.396976,-45
1643363204250,1214.3969788,-38
1643363204250,1214.3969816,-30
1643363204250,1214.3969844,-16
1643363204250,1214.9470944,-11
1643363204250,1214.9471073,-14
1643363204250,1214.9471111,2
1643363204250,1214.9471141,30
1643363204283,1214.9471169,38
1643363204283,1214.9471196,30
1643363204283,1214.9471223,42
1643363204283,1214.947125,66
1643363204283,1214.9471276,78
1643363204283,1214.9471303,80
1643363204283,1214.947133,92
1643363204283,1214.9471357,95
1643363204283,1214.9471383,73
1643363204283,1214.947141,66
1643363204316,1214.9471436,78
1643363204316,1214.9471463,80
1643363204316,1214.947149,71
1643363204316,1214.9471517,49
1643363204316,1214.9471543,28
1643363204316,1214.947157,9
1643363204316,1214.9471597,-14
1643363204316,1214.9471624,-47
1643363204316,1214.947165,-66
1643363204316,1214.9471677,-68
1643363204350,1214.9471703,-66
1643363204350,1214.947173,-54
1643363204350,1214.9471757,-47
1643363204350,1214.9471783,-57
1643363204718,1214.947181,-57
1643363204718,1214.9471837,-40
1643363204718,1214.9471864,-42
1643363204718,1214.947189,-49
1643363204718,1214.947192,-28
1643363204718,1214.947195,-9
1643363204718,1214.9471976,-11
1643363204718,1214.9472003,-16
1643363204718,1214.947203,-26
1643363204718,1214.9472057,-33
1643363204750,1214.9472084,-26
1643363204750,1214.947211,-16
1643363204750,1214.9472137,-19
1643363204750,1214.9472167,-21
1643363204750,1214.9472194,-21
1643363204750,1214.9472221,-21
1643363204750,1214.9472248,-21
1643363204750,1214.9472275,-23
1643363204750,1214.9472306,-21
1643363204750,1214.9472332,-21
1643363204784,1214.947236,-26
1643363204784,1214.9472386,-21
1643363204784,1214.9472413,-19
1643363204784,1214.947244,-21
1643363204784,1214.9472467,-19
1643363204784,1214.9472494,-19
1643363204784,1214.947252,-33
1643363204784,1214.9472547,-28
1643363204784,1214.9472573,-14
1643363204784,1214.94726,-23
1643363204813,1214.9472626,-26
1643363204813,1214.9472653,-14
1643363204813,1214.9472679,-14
1643363204813,1214.9472706,-14
1643363204813,1214.9472732,-9
1643363204813,1214.947276,-4
1643363204813,1214.9472787,14
1643363204813,1214.9472814,30
1643363204813,1214.9472842,33
1643363204813,1214.9472868,19
1643363204842,1214.9472895,9
1643363204842,1214.9472922,9
1643363204842,1214.9472948,2
1643363204842,1214.9472976,0
1643363204842,1214.9473003,9
1643363204842,1215.5456297,11
1643363204842,1215.5456416,2
1643363204842,1215.5456468,14
1643363204842,1215.5456516,38
1643363204842,1215.5456543,54
1643363204871,1215.5456572,163
1643363204871,1215.54566,537
1643363204871,1215.5456629,1024
1643363204871,1215.5456657,1055
1643363204871,1215.5456685,413
1643363204871,1215.5456713,-168
1643363204871,1215.5456742,-135
1643363204871,1215.545677,4
1643363204871,1215.5456798,-95
1643363204871,1215.5456826,-135
1643363204900,1215.5456853,-71
1643363204900,1215.5456881,-73
1643363204900,1215.545691,-85
1643363204900,1215.5456938,-61
1643363204900,1215.5456966,-54
1643363204900,1215.5456994,-61
1643363204900,1215.5457023,-66
1643363204900,1215.5457051,-61
1643363204900,1215.5457078,-47
1643363204900,1215.5457107,-23
1643363204941,1215.5457162,-16
1643363204941,1215.5457193,-7
1643363204941,1215.545722,16
1643363204941,1215.5457248,9
1643363205334,1215.5457276,-4
1643363205334,1215.5457304,16
1643363205334,1215.545733,45
1643363205334,1215.5457357,57
1643363205334,1215.5457383,78
1643363205334,1215.5457409,102
1643363205334,1215.5457435,111
1643363205334,1215.5457462,102
1643363205334,1215.5457488,99
1643363205334,1215.5457515,109
1643363205368,1215.5457541,109
1643363205368,1215.5457568,99
1643363205368,1215.5457594,83
1643363205368,1215.5457621,57
1643363205368,1215.5457648,30
1643363205368,1215.5457676,9
1643363205368,1215.5457703,-11
1643363205368,1215.5457734,-49
1643363205368,1215.5457762,-87
1643363205368,1215.5457793,-95
1643363205401,1215.5457842,-76
1643363205401,1215.5457872,-68
1643363205401,1215.5457901,-59
1643363205401,1215.5457929,-38
1643363205401,1215.5457958,-26
1643363205401,1215.5457999,-28
1643363205401,1215.5458027,-33
1643363205401,1215.5458055,-35
1643363205401,1215.5458083,-28
1643363205401,1215.5458111,-19
1643363205434,1215.5458139,-21
1643363205434,1215.5458168,-21
1643363205434,1215.5458196,-16
1643363205434,1215.5458225,-11
1643363205434,1215.5458252,-9
1643363205434,1215.545828,-14
1643363205434,1215.5458308,-21
1643363205434,1215.5458336,-16
1643363205434,1215.5458364,-16
1643363205434,1215.5458392,-21
1643363205468,1215.545842,-23
1643363205468,1215.5458448,-21
1643363205468,1215.5458476,-16
1643363205468,1215.5458504,-14
1643363205468,1216.1418089,-23
1643363205468,1216.1418217,-28
1643363205468,1216.1419136,-21
1643363205468,1216.1419261,-16
1643363205468,1216.1419295,-21
1643363205468,1216.1419325,-26
1643363205502,1216.1419353,-16
1643363205502,1216.141938,-9
1643363205502,1216.1419408,-9
1643363205502,1216.1419435,-9
1643363205502,1216.1419463,-11
1643363205502,1216.141949,-16
1643363205502,1216.1419517,-14
1643363205502,1216.1419544,-9
1643363205502,1216.1419572,-14
1643363205502,1216.1419599,-30
1643363205535,1216.1419626,-30
1643363205535,1216.1419655,-9
1643363205535,1216.1419686,9
1643363205535,1216.1419715,19
1643363205535,1216.1419744,16
1643363205535,1216.1419774,-7
1643363205535,1216.1419815,-21
1643363205535,1216.1419844,-14
1643363205535,1216.1419873,-11
1643363205535,1216.1419902,-14
1643363205570,1216.1419931,-4
1643363205570,1216.1419959,2
1643363205570,1216.1419998,2
1643363205570,1216.1420028,7
1643363205890,1216.1420074,14
1643363205890,1216.1420103,66
1643363205890,1216.1420131,249
1643363205890,1216.1420158,648
1643363205890,1216.1420186,1036
1643363205890,1216.1420214,869
1643363205890,1216.1420241,206
1643363205890,1216.1420593,-161
1643363205890,1216.1420651,-54
1643363205890,1216.142068,-11
1643363205930,1216.1420709,-116
1643363205930,1216.1420878,-109
1643363205930,1216.1420935,-57
1643363205930,1216.1420965,-68
1643363205930,1216.1421012,-83
1643363205930,1216.1421042,-71
1643363205930,1216.142108,-64
1643363205930,1216.1421109,-57
1643363205930,1216.1421138,-45
1643363205930,1216.1421186,-40
1643363205967,1216.1421214,-38
1643363205967,1216.1421242,-23
1643363205967,1216.1421271,-9
1643363205967,1216.14213,-2
1643363205967,1216.1421329,9
1643363205967,1216.1421357,23
1643363205967,1216.1421385,30
1643363205967,1216.1421413,38
1643363205967,1216.1421442,52
1643363205967,1216.1421471,68
1643363206005,1216.1421499,76
1643363206005,1216.1421527,87
1643363206005,1216.1421555,102
1643363206005,1216.1421584,106
1643363206005,1216.1421613,102
1643363206005,1216.1421646,92
1643363206005,1216.1421693,83
1643363206005,1216.1421722,87
1643363206005,1216.142175,87
1643363206005,1216.1421779,52
1643363206043,1216.1421807,16
1643363206043,1216.1421836,-4
1643363206043,1216.1421866,-28
1643363206043,1216.6967317,-52
1643363206043,1216.6967469,-66
1643363206043,1216.6967523,-68
1643363206043,1216.6967568,-57
1643363206043,1216.6967596,-38
1643363206043,1216.6967624,-33
1643363206043,1216.6967651,-42
1643363206083,1216.6967681,-57
1643363206083,1216.696772,-57
1643363206083,1216.6967749,-35
1643363206083,1216.6967777,-28
1643363206083,1216.6967806,-30
1643363206083,1216.6967835,-30
1643363206083,1216.6967874,-30
1643363206083,1216.6967904,-38
1643363206083,1216.6967933,-40
1643363206083,1216.6967961,-30
1643363206124,1216.6967989,-21
1643363206124,1216.6968017,-30
1643363206124,1216.6968045,-30
1643363206124,1216.6968073,-21
1643363206124,1216.6968101,-40
1643363206124,1216.6968144,-64
1643363206124,1216.6968173,-61
1643363206124,1216.6968201,-47
1643363206124,1216.696823,-40
1643363206124,1216.6968259,-35
1643363206167,1216.6968288,-30
1643363206167,1216.6968329,-28
1643363206167,1216.6968359,-33
1643363206167,1216.6968398,-28
1643363206523,1216.6968426,-26
1643363206523,1216.6968454,-35
1643363206523,1216.6968481,-38
1643363206523,1216.6968508,-23
1643363206523,1216.6968535,-16
1643363206523,1216.6968562,-16
1643363206523,1216.6968588,-21
1643363206523,1216.6968615,-35
1643363206523,1216.6968642,-38
1643363206523,1216.6968669,-19
1643363206570,1216.6968696,0
1643363206570,1216.6968724,21
1643363206570,1216.696875,42
1643363206570,1216.6968777,49
1643363206570,1216.6968804,16
1643363206570,1216.696883,-9
1643363206570,1216.6968857,-2
1643363206570,1216.6968884,4
1643363206570,1216.6968911,0
1643363206570,1216.6968938,9
1643363206617,1216.6968965,21
1643363206617,1216.6968992,21
1643363206617,1216.696902,19
1643363206617,1216.6969048,16
1643363206617,1216.6969077,38
1643363206617,1216.6969106,182
1643363206617,1216.6969134,572
1643363206617,1216.6969162,1055
1643363206617,1216.6969191,1052
1643363206617,1216.6969223,403
1643363206667,1216.6969275,-104
1643363206667,1216.6969305,-49
1643363206667,1216.6969334,33
1643363206667,1216.6969362,-66
1643363206667,1216.6969391,-80
1643363206667,1216.696943,-38
1643363206667,1216.6969459,-49
1643363206667,1216.6969499,-47
1643363206667,1216.6969537,-30
1643363206667,1216.6969566,-30
1643363206711,1216.6969596,-35
1643363206711,1216.6969634,-33
1643363206711,1217.3413902,-23
1643363206711,1217.3414024,-9
1643363206711,1217.3414074,2
1643363206711,1217.3414121,16
1643363206711,1217.3414151,26
1643363206711,1217.3414197,23
1643363206711,1217.3414243,28
1643363206711,1217.3414291,52
1643363206757,1217.3414333,66
1643363206757,1217.3414378,73
1643363206757,1217.3414423,90
1643363206757,1217.3414451,109
1643363206757,1217.3414479,114
1643363206757,1217.3414508,111
1643363206757,1217.3414536,109
1643363206757,1217.3414563,106
1643363206757,1217.3414591,111
1643363206757,1217.341462,109
1643363206803,1217.3414668,76
1643363206803,1217.3414695,35
1643363206803,1217.3414723,11
1643363206803,1217.3414751,-4
1643363206803,1217.3414779,-28
1643363206803,1217.3414807,-59
1643363206803,1217.3414835,-80
1643363206803,1217.3414862,-92
1643363206803,1217.341489,-106
1643363206803,1217.3414918,-102
1643363206841,1217.3414952,-80
1643363206841,1217.341498,-73
1643363206841,1217.3415008,-73
1643363206841,1217.3415036,-57
1643363207229,1217.3415064,-45
1643363207229,1217.3415091,-47
1643363207229,1217.3415118,-40
1643363207229,1217.3415145,-35
1643363207229,1217.3415171,-38
1643363207229,1217.3415198,-30
1643363207229,1217.3415224,-21
1643363207229,1217.3415251,-19
1643363207229,1217.3415277,-23
1643363207229,1217.3415304,-30
1643363207271,1217.3415331,-33
1643363207271,1217.3415358,-28
1643363207271,1217.3415384,-26
1643363207271,1217.3415412,-28
1643363207271,1217.3415441,-35
1643363207271,1217.3415468,-35
1643363207271,1217.3415494,-28
1643363207271,1217.3415523,-28
1643363207271,1217.3415585,-33
1643363207271,1217.3415614,-33
1643363207314,1217.3415642,-28
1643363207314,1217.341567,-19
1643363207314,1217.3415698,-14
1643363207314,1217.3415726,-21
1643363207314,1217.3415755,-33
1643363207314,1217.3415792,-33
1643363207314,1217.3415819,-14
1643363207314,1217.3415848,7
1643363207314,1217.3415896,19
1643363207314,1217.3415923,26
1643363207360,1217.3415951,23
1643363207360,1217.3415979,4
1643363207360,1217.3416006,-9
1643363207360,1217.3416034,-7
1643363207360,1217.3416065,0
1643363207360,1217.3416113,-2
1643363207360,1217.3416142,7
1643363207360,1217.3416179,19
1643363207360,1217.3416207,9
1643363207360,1217.3416238,0
1643363207406,1217.3416284,14
1643363207406,1218.0410795,49
1643363207406,1218.0410919,185
1643363207406,1218.0410955,546
1643363207406,1218.0411005,1007
1643363207406,1218.0411042,1028
1643363207406,1218.0411089,401
1643363207406,1218.0411133,-142
1643363207406,1218.041118,-90
1643363207406,1218.0411211,35
1643363207452,1218.0411257,-66
1643363207452,1218.0411305,-114
1643363207452,1218.0411351,-71
1643363207452,1218.041138,-80
1643363207452,1218.0411409,-92
1643363207452,1218.0411438,-78
1643363207452,1218.0411466,-76
1643363207452,1218.0411495,-78
1643363207452,1218.0411543,-73
1643363207452,1218.0411589,-64
1643363207498,1218.0411636,-64
1643363207498,1218.0411674,-57
1643363207498,1218.0411703,-45
1643363207498,1218.0411732,-38
1643363207498,1218.041176,-28
1643363207498,1218.0411789,-16
1643363207498,1218.0411818,-4
1643363207498,1218.0411847,7
1643363207498,1218.0411901,21
1643363207498,1218.0411943,38
1643363207544,1218.0411983,54
1643363207544,1218.0412012,59
1643363207544,1218.041205,66
1643363207544,1218.0412079,83
1643363207544,1218.0412108,92
1643363207544,1218.0412136,85
1643363207544,1218.0412163,80
1643363207544,1218.041219,78
1643363207544,1218.0412217,57
1643363207544,1218.0412244,28
1643363207591,1218.0412271,4
1643363207591,1218.0412298,-26
1643363207591,1218.0412325,-47
1643363207591,1218.0412353,-59
1643363207591,1218.041238,-73
1643363207591,1218.0412407,-80
1643363207591,1218.0412434,-71
1643363207591,1218.0412461,-61
1643363207591,1218.0412488,-57
1643363207591,1218.0412515,-47
1643363207635,1218.0412542,-40
1643363207635,1218.0412571,-38
1643363207635,1218.0412599,-33
1643363207635,1218.0412628,-26
1643363207635,1218.0412677,-23
1643363207635,1218.0412707,-21
1643363207635,1218.0412735,-19
1643363207635,1218.0412764,-16
1643363207635,1218.0412812,-16
1643363207635,1218.0412847,-23
1643363207681,1218.0412894,-26
1643363207681,1218.0412939,-19
1643363207681,1218.0412977,-19
1643363207681,1218.0413006,-21
1643363207681,1218.0413035,-19
1643363207681,1218.0413064,-23
1643363207681,1218.0413092,-28
1643363207681,1218.0413121,-23
1643363207681,1218.0413149,-23
1643363207681,1218.0413179,-23
1643363207731,1218.0413226,-23
1643363207731,1218.041327,-26
1643363207731,1218.0413317,-26
1643363207731,1218.0413345,-28
1643363207731,1218.2967358,-35
1643363207731,1218.2967481,-21
1643363207731,1218.2967523,7
1643363207731,1218.2967611,16
1643363207731,1218.296764,16
1643363207731,1218.2967669,14
1643363207773,1218.2967698,4
1643363207773,1218.2967726,-7
1643363207773,1218.2967754,-19
1643363207773,1218.2967783,-28
1643363207773,1218.2967811,-28
1643363207773,1218.2967851,-19
1643363207773,1218.2967879,-11
1643363207773,1218.2967909,0
1643363207773,1218.2967938,7
1643363207773,1218.2967966,0
1643363207822,1218.2967994,7
1643363207822,1218.2968023,97
1643363207822,1218.2968052,370
1643363207822,1218.2968081,826
1643363207822,1218.2968109,1064
1643363207822,1218.2968137,627
1643363207822,1218.2968165,-47
1643363207822,1218.2968194,-194
1643363207822,1218.2968222,-26
1643363207822,1218.296825,-59
1643363207860,1218.2968278,-137
1643363207860,1218.2968307,-92
1643363207860,1218.2968337,-76
1643363207860,1218.2968376,-95
1643363207860,1218.2968404,-78
1643363207860,1218.2968433,-64
1643363207860,1218.2968463,-68
1643363207860,1218.2968513,-57
1643363208073,1218.2968541,-38
1643363208073,1218.2968569,-33
1643363208073,1218.2968596,-33
1643363208073,1218.2968623,-26
1643363208073,1218.2968649,-4
1643363208073,1218.2968677,9
1643363208073,1218.2968703,16
1643363208073,1218.296873,19
1643363208073,1218.2968756,26
1643363208073,1218.2968783,33
1643363208119,1218.2968809,47
1643363208119,1218.2968837,66
1643363208119,1218.2968865,85
1643363208119,1218.2968892,97
1643363208119,1218.2968921,99
1643363208119,1218.2968953,95
1643363208119,1218.2969005,95
1643363208119,1218.296904,97
1643363208119,1218.2969071,99
1643363208119,1218.2969117,92
1643363208165,1218.2969161,64
1643363208165,1218.2969205,28
1643363208165,1218.2969234,9
1643363208165,1218.2969262,-14
1643363208165,1218.2969291,-38
1643363208165,1218.2969327,-49
1643363208165,1218.2969356,-54
1643363208165,1218.2969385,-54
1643363208165,1218.2969413,-47
1643363208165,1218.2969441,-38
1643363208207,1218.296947,-28
1643363208207,1218.2969499,-28
1643363208207,1218.2969528,-35
1643363208207,1218.2969556,-40
1643363208207,1218.2969583,-28
1643363208207,1218.2969611,-19
1643363208207,1218.296964,-19
1643363208207,1218.2969668,-16
1643363208207,1218.2969695,-14
1643363208207,1218.8918664,-14
1643363208251,1218.8918786,-23
1643363208251,1218.8918819,-33
1643363208251,1218.8918914,-28
1643363208251,1218.891897,-30
1643363208251,1218.8918999,-35
1643363208251,1218.8919026,-33
1643363208251,1218.8919058,-47
1643363208251,1218.8919085,-73
1643363208251,1218.8919113,-76
1643363208251,1218.8919159,-64
1643363208294,1218.8919263,-64
1643363208294,1218.8919292,-68
1643363208294,1218.8919322,-68
1643363208294,1218.8919352,-66
1643363208294,1218.8919383,-45
1643363208294,1218.891941,-21
1643363208294,1218.8919436,-9
1643363208294,1218.8919471,-9
1643363208294,1218.8919498,-21
1643363208294,1218.8919525,-42
1643363208340,1218.8919552,-47
1643363208340,1218.8919588,-38
1643363208340,1218.8919615,-35
1643363208340,1218.8919641,-38
1643363208340,1218.8919672,-30
1643363208340,1218.8919699,-28
1643363208340,1218.8919726,-28
1643363208340,1218.8919753,-23
1643363208340,1218.8919787,-21
1643363208340,1218.8919814,7
1643363208387,1218.8919841,163
1643363208387,1218.8919868,548
1643363208387,1218.8919899,993
1643363208387,1218.8919926,960
1643363208616,1218.8919953,320
1643363208616,1218.8919985,-156
1643363208616,1218.8920012,-71
1643363208616,1218.8920039,19
1643363208616,1218.8920067,-85
1643363208616,1218.8920098,-92
1643363208616,1218.8920129,-38
1643363208616,1218.8920156,-61
1643363208616,1218.8920184,-71
1643363208616,1218.8920215,-45
1643363208662,1218.892025,-42
1643363208662,1218.8920277,-47
1643363208662,1218.8920313,-26
1643363208662,1218.892034,-16
1643363208662,1218.8920367,-19
1643363208662,1218.8920393,-11
1643363208662,1218.8920427,0
1643363208662,1218.8920454,2
1643363208662,1218.8920481,14
1643363208662,1218.8920509,33
1643363208703,1218.8920537,35
1643363208703,1218.8920564,38
1643363208703,1218.892059,59
1643363208703,1218.8920619,76
1643363208703,1218.8920645,83
1643363208703,1218.8920673,95
1643363208703,1218.8920699,109
1643363208703,1218.8920732,114
1643363208703,1218.8920759,114
1643363208703,1218.8920789,106
1643363208753,1218.8920817,99
1643363208753,1218.8920848,92
1643363208753,1218.8920875,71
1643363208753,1218.8920902,40
1643363208753,1218.892093,21
1643363208753,1218.8920957,-2
1643363208753,1218.8920984,-26
1643363208753,1218.8921011,-38
1643363208753,1219.4455758,-38
1643363208753,1219.4456003,-35
1643363208803,1219.4456062,-30
1643363208803,1219.4456094,-23
1643363208803,1219.4456124,-23
1643363208803,1219.4456151,-26
1643363208803,1219.4456179,-42
1643363208803,1219.4456206,-52
1643363208803,1219.4456233,-33
1643363208803,1219.445626,-21
1643363208803,1219.4456287,-33
1643363208803,1219.4456314,-42
1643363208852,1219.4456341,-47
1643363208852,1219.4456371,-47
1643363208852,1219.44564,-40
1643363208852,1219.4456426,-40
1643363208852,1219.4456453,-49
1643363208852,1219.445648,-54
1643363208852,1219.4456507,-49
1643363208852,1219.4456534,-49
1643363208852,1219.445656,-57
1643363208852,1219.4456588,-54
1643363208895,1219.4456614,-57
1643363208895,1219.4456641,-59
1643363208895,1219.445667,-52
1643363208895,1219.4456699,-42
1643363208895,1219.4456725,-47
1643363208895,1219.4456752,-57
1643363208895,1219.4456778,-49
1643363208895,1219.4456805,-23
1643363208895,1219.4456837,0
1643363208895,1219.4456867,11
1643363208940,1219.4456896,9
1643363208940,1219.4456923,-9
1643363208940,1219.4456949,-33
1643363208940,1219.4456976,-35
1643363209247,1219.4457002,-26
1643363209247,1219.4457028,-19
1643363209247,1219.4457055,-21
1643363209247,1219.4457081,-19
1643363209247,1219.4457108,-16
1643363209247,1219.4457306,-14
1643363209247,1219.4457354,-14
1643363209247,1219.4457382,-19
1643363209247,1219.4457409,2
1643363209247,1219.4457437,125
1643363209294,1219.4457602,456
1643363209294,1219.4457894,886
1643363209294,1219.4458045,941
1643363209294,1219.4458241,401
1643363209294,1219.4458432,-114
1643363209294,1219.4458579,-114
1643363209294,1219.4458798,2
1643363209294,1219.4458993,-68
1643363209294,1219.4459169,-102
1643363209294,1219.4459249,-57
1643363209336,1219.4459289,-59
1643363209336,1219.4459315,-68
1643363209336,1219.4459341,-59
1643363209336,1219.4459367,-59
1643363209336,1219.4459394,-59
1643363209336,1219.4459428,-45
1643363209336,1219.4459454,-30
1643363209336,1219.445948,-28
1643363209336,1219.4459507,-28
1643363209336,1219.4459533,-16
1643363209383,1219.4459562,-7
1643363209383,1219.4459588,2
1643363209383,1219.4459615,11
1643363209383,1219.4459643,21
1643363209383,1219.445967,33
1643363209383,1219.4459697,49
1643363209383,1219.4459724,66
1643363209383,1220.0454074,78
1643363209383,1220.045419,85
1643363209383,1220.0454224,90
1643363209427,1220.0454253,87
1643363209427,1220.0454279,83
1643363209427,1220.0454306,80
1643363209427,1220.0454332,83
1643363209427,1220.0454359,83
1643363209427,1220.0454386,76
1643363209427,1220.0454412,54
1643363209427,1220.0454438,28
1643363209427,1220.0454465,-9
1643363209427,1220.0454492,-42
1643363209473,1220.0454518,-54
1643363209473,1220.0454545,-57
1643363209473,1220.0454571,-59
1643363209473,1220.0454597,-57
1643363209473,1220.0454623,-45
1643363209473,1220.0454649,-35
1643363209473,1220.0454675,-28
1643363209473,1220.0454706,-23
1643363209473,1220.0454732,-21
1643363209473,1220.0454758,-16
1643363209515,1220.0454786,-14
1643363209515,1220.0454813,-14
1643363209515,1220.0454839,-14
1643363209515,1220.045487,-11
1643363209515,1220.0454896,-11
1643363209515,1220.0454922,-9
1643363209515,1220.0454948,-9
1643363209515,1220.0454975,-9
1643363209515,1220.0455001,-9
1643363209515,1220.0455027,-11
1643363209563,1220.0455054,-19
1643363209563,1220.045508,-21
1643363209563,1220.0455107,-19
1643363209563,1220.0455133,-19
1643363209839,1220.0455159,-23
1643363209839,1220.0455186,-23
1643363209839,1220.0455212,-19
1643363209839,1220.0455239,-28
1643363209839,1220.0455268,-35
1643363209839,1220.0455298,-19
1643363209839,1220.0455325,-2
1643363209839,1220.0455354,2
1643363209839,1220.0455383,11
1643363209839,1220.045541,9
1643363209881,1220.0455437,-9
1643363209881,1220.0455463,-19
1643363209881,1220.0455489,-16
1643363209881,1220.0455516,-21
1643363209881,1220.0455543,-28
1643363209881,1220.0455569,-28
1643363209881,1220.0455596,-26
1643363209881,1220.0455622,-19
1643363209881,1220.0455649,-14
1643363209881,1220.0455676,-21
1643363209923,1220.0455702,-23
1643363209923,1220.0455728,19
1643363209923,1220.0455754,206
1643363209923,1220.0455781,622
1643363209923,1220.0455808,1021
1643363209923,1220.0455838,855
1643363209923,1220.0455864,197
1643363209923,1220.0455891,-154
1643363209923,1220.0455917,-40
1643363209923,1220.0455943,-9
1643363209970,1220.0455969,-102
1643363209970,1220.0455995,-83
1643363209970,1220.0456023,-52
1643363209970,1220.0456054,-73
1643363209970,1220.0456083,-71
1643363209970,1220.0456111,-49
1643363209970,1220.6427817,-45
1643363209970,1220.6427928,-40
1643363209970,1220.6427976,-33
1643363209970,1220.6428025,-30
1643363210011,1220.6428062,-21
1643363210011,1220.6428107,-9
1643363210011,1220.6428152,0
1643363210011,1220.6428197,9
1643363210011,1220.6428225,21
1643363210011,1220.6428254,28
1643363210011,1220.6428286,33
1643363210011,1220.6428329,47
1643363210011,1220.6428357,68
1643363210011,1220.6428385,80
1643363210052,1220.6428422,87
1643363210052,1220.6428449,95
1643363210052,1220.6428477,87
1643363210052,1220.6428504,76
1643363210052,1220.6428531,80
1643363210052,1220.6428559,85
1643363210052,1220.6428586,76
1643363210052,1220.6428613,66
1643363210052,1220.6428641,52
1643363210052,1220.6428669,26
1643363210097,1220.6428695,2
1643363210097,1220.6428722,-19
1643363210097,1220.642875,-35
1643363210097,1220.6428777,-47
1643363210097,1220.6428805,-52
1643363210097,1220.6428832,-54
1643363210097,1220.6428859,-45
1643363210097,1220.6428887,-33
1643363210097,1220.6428914,-26
1643363210097,1220.6428941,-19
1643363210139,1220.6428968,-9
1643363210139,1220.6428995,-2
1643363210139,1220.6429022,0
1643363210139,1220.6429049,0
1643363210359,1220.6429076,2
1643363210359,1220.6429103,7
1643363210359,1220.6429129,9
1643363210359,1220.6429155,4
1643363210359,1220.642918,2
1643363210359,1220.6429206,2
1643363210359,1220.6429232,0
1643363210359,1220.6429259,-11
1643363210359,1220.6429285,-21
1643363210359,1220.6429311,-21
1643363210403,1220.6429337,-23
1643363210403,1220.6429362,-30
1643363210403,1220.6429388,-26
1643363210403,1220.6429417,-21
1643363210403,1220.6429452,-16
1643363210403,1220.6429478,-19
1643363210403,1220.6429504,-30
1643363210403,1220.6429536,-38
1643363210403,1220.6429564,-23
1643363210403,1220.6429592,-2
1643363210449,1220.642962,9
1643363210449,1220.6429647,14
1643363210449,1220.6429675,4
1643363210449,1220.6429703,-16
1643363210449,1220.642973,-26
1643363210449,1220.6429758,-23
1643363210449,1220.6429784,-23
1643363210449,1220.6429812,-28
1643363210449,1220.6429839,-26
1643363210449,1220.6429867,-21
1643363210497,1220.6429895,-23
1643363210497,1220.6429922,-23
1643363210497,1220.6429949,-28
1643363210497,1220.6429976,-11
1643363210497,1220.6430003,104
1643363210497,1221.1962188,432
1643363210497,1221.196231,912
1643363210497,1221.1962356,1050
1643363210497,1221.1962406,503
1643363210497,1221.1962445,-99
1643363210543,1221.1962491,-123
1643363210543,1221.1962523,14
1643363210543,1221.1962569,-73
1643363210543,1221.1962598,-130
1643363210543,1221.1962627,-80
1643363210543,1221.1962656,-80
1643363210543,1221.1962685,-97
1643363210543,1221.1962712,-76
1643363210543,1221.1962741,-66
1643363210543,1221.1962769,-78
1643363210587,1221.1962799,-90
1643363210587,1221.1962827,-87
1643363210587,1221.1962855,-73
1643363210587,1221.1962883,-61
1643363210587,1221.1962912,-57
1643363210587,1221.1962941,-52
1643363210587,1221.196297,-49
1643363210587,1221.1962999,-40
1643363210587,1221.1963027,-19
1643363210587,1221.1963056,0
1643363210629,1221.1963084,11
1643363210629,1221.1963112,23
1643363210629,1221.196314,38
1643363210629,1221.1963168,42
1643363210629,1221.1963196,49
1643363210629,1221.1963224,64
1643363210629,1221.1963252,71
1643363210629,1221.196328,64
1643363210629,1221.1963309,59
1643363210629,1221.1963337,59
1643363210673,1221.1963364,54
1643363210673,1221.1963392,33
1643363210673,1221.1963421,-2
1643363210673,1221.1963449,-28
1643363210899,1221.1963478,-35
1643363210899,1221.1963505,-38
1643363210899,1221.1963531,-45
1643363210899,1221.1963558,-57
1643363210899,1221.1963585,-57
1643363210899,1221.1963611,-42
1643363210899,1221.1963638,-26
1643363210899,1221.1963664,-19
1643363210899,1221.196369,-16
1643363210899,1221.1963717,-9
1643363210944,1221.1963743,-7
1643363210944,1221.1963769,-9
1643363210944,1221.1963795,-4
1643363210944,1221.1963822,2
1643363210944,1221.1963849,0
1643363210944,1221.1963875,-7
1643363210944,1221.1963905,-7
1643363210944,1221.1963933,0
1643363210944,1221.1963961,-2
1643363210944,1221.1963989,-11
1643363210988,1221.1964017,-7
1643363210988,1221.1964045,-9
1643363210988,1221.1964074,-21
1643363210988,1221.1964102,-21
1643363210988,1221.1964153,-14
1643363210988,1221.1964184,-16
1643363210988,1221.1964212,-19
1643363210988,1221.1964238,-23
1643363210988,1221.1964267,-33
1643363210988,1221.1964295,-33
1643363211034,1221.1964323,-28
1643363211034,1221.1964352,-23
1643363211034,1221.1964379,-16
1643363211034,1221.1964407,-14
1643363211034,1221.6968095,-21
1643363211034,1221.6968216,-11
1643363211034,1221.6968263,2
1643363211034,1221.6968311,19
1643363211034,1221.6968351,38
1643363211034,1221.6968389,28
1643363211082,1221.696842,-9
1643363211082,1221.6968449,-23
1643363211082,1221.6968477,-9
1643363211082,1221.6968505,-9
1643363211082,1221.6968533,-23
1643363211082,1221.6968561,-28
1643363211082,1221.6968589,-33
1643363211082,1221.6968617,-35
1643363211082,1221.6968646,-28
1643363211082,1221.6968674,-23
1643363211125,1221.6968702,-16
1643363211125,1221.6968731,35
1643363211125,1221.6968759,161
1643363211125,1221.6968787,392
1643363211125,1221.6968816,703
1643363211125,1221.6968865,781
1643363211125,1221.6968908,356
1643363211125,1221.6968956,-123
1643363211125,1221.6968983,-152
1643363211125,1221.6969012,-19
1643363211173,1221.696904,-68
1643363211173,1221.6969069,-123
1643363211173,1221.6969096,-78
1643363211173,1221.6969125,-68
1643363211173,1221.6969153,-95
1643363211173,1221.696918,-90
1643363211173,1221.696921,-73
1643363211173,1221.6969263,-64
1643363211173,1221.6969313,-42
1643363211173,1221.696935,-30
1643363211221,1221.6969379,-38
1643363211221,1221.6969407,-38
1643363211221,1221.6969435,-19
1643363211221,1221.6969464,-7
1643363211552,1221.6969492,2
1643363211552,1221.696952,19
1643363211552,1221.6969546,35
1643363211552,1221.6969573,47
1643363211552,1221.6969601,57
1643363211552,1221.6969628,66
1643363211552,1221.6969655,78
1643363211552,1221.6969681,99
1643363211552,1221.6969707,114
1643363211552,1221.6969734,109
1643363211602,1221.696976,109
1643363211602,1221.6969787,116
1643363211602,1221.6969813,116
1643363211602,1221.6969839,116
1643363211602,1221.6969866,109
1643363211602,1221.6969892,76
1643363211602,1221.6969918,42
1643363211602,1221.6969945,23
1643363211602,1221.6969974,2
1643363211602,1221.6970003,-16
1643363211650,1221.6970032,-21
1643363211650,1221.697006,-21
1643363211650,1221.6970089,-28
1643363211650,1221.6970117,-26
1643363211650,1221.6970146,-14
1643363211650,1221.6970191,-7
1643363211650,1221.6970219,-7
1643363211650,1221.6970248,0
1643363211650,1221.6970288,7
1643363211650,1221.6970317,19
1643363211701,1221.6970366,26
1643363211701,1221.6970393,14
1643363211701,1221.6970421,0
1643363211701,1222.3460779,4
1643363211701,1222.3460902,4
1643363211701,1222.3460938,0
1643363211701,1222.3460985,2
1643363211701,1222.346103,4
1643363211701,1222.3461068,0
1643363211701,1222.3461097,-9
1643363211749,1222.3461135,-9
1643363211749,1222.3461164,-4
1643363211749,1222.3461192,-9
1643363211749,1222.3461221,-21
1643363211749,1222.3461249,-35
1643363211749,1222.3461278,-54
1643363211749,1222.3461306,-57
1643363211749,1222.3461335,-49
1643363211749,1222.3461364,-47
1643363211749,1222.3461392,-45
1643363211803,1222.346142,-40
1643363211803,1222.3461448,-42
1643363211803,1222.3461476,-42
1643363211803,1222.3461504,-42
1643363211803,1222.3461542,-40
1643363211803,1222.3461571,-30
1643363211803,1222.3461599,-21
1643363211803,1222.3461628,-11
1643363211803,1222.3461676,-2
1643363211803,1222.3461715,-7
1643363211850,1222.3461752,-26
1643363211850,1222.3461781,-42
1643363211850,1222.346181,-42
1643363211850,1222.3461838,-40
1643363211850,1222.3461866,-45
1643363211850,1222.3461896,-47
1643363211850,1222.3461924,-33
1643363211850,1222.3461952,-21
1643363211850,1222.3461982,-21
1643363211850,1222.3462029,-16
1643363211896,1222.3462057,-4
1643363211896,1222.3462086,47
1643363211896,1222.3462115,220
1643363211896,1222.3462144,579
1643363212076,1222.3462173,941
1643363212076,1222.3462202,826
1643363212076,1222.346223,216
1643363212076,1222.3462257,-173
1643363212076,1222.3462285,-68
1643363212076,1222.3462312,4
1643363212076,1222.346234,-90
1643363212076,1222.3462367,-85
1643363212076,1222.3462395,-38
1643363212076,1222.3462422,-66
1643363212122,1222.3462448,-73
1643363212122,1222.3462476,-42
1643363212122,1222.3462503,-33
1643363212122,1222.346253,-33
1643363212122,1222.3462556,-26
1643363212122,1222.3462583,-21
1643363212122,1222.346262,-16
1643363212122,1222.3462649,0
1643363212122,1222.3462677,14
1643363212122,1222.3462717,16
1643363212170,1222.3462746,23
1643363212170,1222.3462775,35
1643363212170,1222.3462804,40
1643363212170,1222.346285,49
1643363212170,1222.3462878,66
1643363212170,1222.3462907,83
1643363212170,1222.3462935,95
1643363212170,1222.3462964,104
1643363212170,1222.3462993,111
1643363212170,1222.346304,114
1643363212214,1222.3463077,111
1643363212214,1222.3463105,114
1643363212214,1222.8928458,106
1643363212214,1222.8928579,90
1643363212214,1222.8928614,83
1643363212214,1222.8928664,66
1643363212214,1222.8928704,35
1643363212214,1222.8928742,14
1643363212214,1222.8928771,-2
1643363212214,1222.8928798,-19
1643363212264,1222.8928825,-28
1643363212264,1222.8928852,-23
1643363212264,1222.892888,-21
1643363212264,1222.8928907,-26
1643363212264,1222.8928935,-19
1643363212264,1222.8928962,-7
1643363212264,1222.892899,-4
1643363212264,1222.8929017,-9
1643363212264,1222.8929045,-16
1643363212264,1222.8929072,-9
1643363212310,1222.8929099,2
1643363212310,1222.8929128,0
1643363212310,1222.8929247,-4
1643363212310,1222.8929312,-7
1643363212310,1222.8929364,-16
1643363212310,1222.8929393,-35
1643363212310,1222.8929421,-45
1643363212310,1222.8929448,-38
1643363212310,1222.8929475,-30
1643363212310,1222.8929503,-23
1643363212359,1222.8929531,-26
1643363212359,1222.8929558,-52
1643363212359,1222.8929585,-64
1643363212359,1222.8929612,-42
1643363212359,1222.892964,-30
1643363212359,1222.892969,-35
1643363212359,1222.8929736,-40
1643363212359,1222.8929764,-30
1643363212359,1222.8929791,-21
1643363212359,1222.8929819,-16
1643363212408,1222.8929847,-14
1643363212408,1222.8929873,-21
1643363212408,1222.89299,-30
1643363212408,1222.8929928,-30
1643363212745,1222.8929955,-33
1643363212745,1222.8929983,-40
1643363212745,1222.8930009,-28
1643363212745,1222.8930035,-2
1643363212745,1222.8930061,16
1643363212745,1222.8930088,21
1643363212745,1222.893143,19
1643363212745,1222.893149,-2
1643363212745,1222.8931521,-14
1643363212745,1222.8931549,-4
1643363212794,1222.8931579,-4
1643363212794,1222.8931606,-11
1643363212794,1222.8931633,-9
1643363212794,1222.8931659,-7
1643363212794,1222.8931685,-2
1643363212794,1222.8931713,9
1643363212794,1222.8931758,14
1643363212794,1222.8931817,4
1643363212794,1222.8931847,49
1643363212794,1222.8931876,287
1643363212845,1222.8931905,784
1643363212845,1222.893195,1240
1643363212845,1222.8932205,1038
1643363212845,1222.8932282,251
1643363212845,1222.8932319,-185
1643363212845,1222.893236,-47
1643363212845,1222.893239,0
1643363212845,1222.8932436,-125
1643363212845,1222.8932464,-106
1643363212845,1222.8932492,-49
1643363212891,1222.893252,-71
1643363212891,1223.5411328,-71
1643363212891,1223.5411447,-47
1643363212891,1223.5411481,-49
1643363212891,1223.5411511,-57
1643363212891,1223.5411539,-47
1643363212891,1223.5411566,-30
1643363212891,1223.5411593,-14
1643363212891,1223.5411621,-2
1643363212891,1223.5411648,-7
1643363212938,1223.5411675,-14
1643363212938,1223.5411702,-4
1643363212938,1223.5411729,16
1643363212938,1223.5411755,26
1643363212938,1223.5411782,35
1643363212938,1223.5411808,49
1643363212938,1223.5411835,42
1643363212938,1223.5411862,35
1643363212938,1223.5411889,68
1643363212938,1223.5411916,97
1643363212981,1223.5411944,73
1643363212981,1223.541197,59
1643363212981,1223.5411997,90
1643363212981,1223.5412024,87
1643363212981,1223.541205,52
1643363212981,1223.5412077,38
1643363212981,1223.5412103,38
1643363212981,1223.541213,11
1643363212981,1223.5412157,-21
1643363212981,1223.5412185,-45
1643363213028,1223.5412217,-49
1643363213028,1223.5412244,-57
1643363213028,1223.5412271,-61
1643363213028,1223.5412297,-54
1643363213028,1223.5412324,-38
1643363213028,1223.5412351,-23
1643363213028,1223.5412378,-16
1643363213028,1223.5412404,-19
1643363213028,1223.5412431,-19
1643363213028,1223.5412458,-7
1643363213075,1223.5412485,7
1643363213075,1223.5412513,16
1643363213075,1223.541254,11
1643363213075,1223.5412567,2
1643363213168,1223.5412595,0
1643363213168,1223.5412622,0
1643363213168,1223.5412649,2
1643363213168,1223.5412679,7
1643363213168,1223.5412706,7
1643363213168,1223.5412733,-4
1643363213168,1223.5412761,-14
1643363213168,1223.5412798,-9
1643363213168,1223.5412827,-2
1643363213168,1223.5412856,0
1643363213218,1223.5412883,-4
1643363213218,1223.541291,-19
1643363213218,1223.5412937,-23
1643363213218,1223.5412965,-19
1643363213218,1223.5412992,-14
1643363213218,1223.5413018,-4
1643363213218,1223.5413046,-2
1643363213218,1223.5413074,-11
1643363213218,1223.5413101,-16
1643363213218,1223.5413129,-11
1643363213267,1223.5413156,-11
1643363213267,1223.5413184,-21
1643363213267,1223.5413216,-16
1643363213267,1223.5413248,-4
1643363213267,1223.5413277,-7
1643363213267,1223.5413308,-14
1643363213267,1223.5413372,2
1643363213267,1223.5413404,30
1643363213267,1223.5413442,45
1643363213267,1223.5413472,42
1643363213315,1223.9953536,23
1643363213315,1223.9953656,-7
1643363213315,1223.9953691,-21
1643363213315,1223.9953738,-19
1643363213315,1223.9953768,-21
1643363213315,1223.9953798,-23
1643363213315,1223.9953826,-11
1643363213315,1223.9953875,-7
1643363213315,1223.9953919,-14
1643363213315,1223.9953965,-19
1643363213365,1223.9954004,-7
1643363213365,1223.9954032,30
1643363213365,1223.995407,168
1643363213365,1223.9954099,489
1643363213365,1223.9954126,867
1643363213365,1223.9954155,869
1643363213365,1223.9954182,346
1643363213365,1223.995421,-114
1643363213365,1223.9954257,-97
1643363213365,1223.9954299,-4
1643363213416,1223.9954348,-95
1643363213416,1223.9954377,-142
1643363213416,1223.9954422,-104
1643363213416,1223.9954467,-99
1643363213416,1223.9954514,-102
1643363213416,1223.9954541,-90
1643363213416,1223.9954569,-95
1643363213416,1223.9954597,-92
1643363213416,1223.9954624,-73
1643363213416,1223.9954652,-66
1643363213465,1223.995468,-57
1643363213465,1223.9954707,-40
1643363213465,1223.9954735,-30
1643363213465,1223.9954762,-28
1643363213465,1223.995479,-23
1643363213465,1223.9954818,-16
1643363213465,1223.9954846,-2
1643363213465,1223.9954875,11
1643363213465,1223.9954903,26
1643363213465,1223.9954951,45
1643363213514,1223.9954996,59
1643363213514,1223.9955049,66
1643363213514,1223.9955077,78
1643363213514,1223.9955105,92
1643363213663,1223.9955134,95
1643363213663,1223.9955161,92
1643363213663,1223.9955188,90
1643363213663,1223.9955214,87
1643363213663,1223.9955241,83
1643363213663,1223.9955267,57
1643363213663,1223.9955293,30
1643363213663,1223.9955319,16
1643363213663,1223.9955346,-9
1643363213663,1223.9955372,-35
1643363213710,1223.9955398,-38
1643363213710,1223.9955425,-38
1643363213710,1223.9955453,-45
1643363213710,1223.995548,-35
1643363213710,1223.9955508,-21
1643363213710,1223.9955537,-21
1643363213710,1223.9955589,-19
1643363213710,1223.9955616,-9
1643363213710,1223.9955644,-4
1643363213710,1223.9955683,-2
1643363213761,1223.9955711,-2
1643363213761,1223.9955738,-4
1643363213761,1223.9955767,-7
1643363213761,1223.9955796,-19
1643363213761,1223.9955842,-30
1643363213761,1223.9955869,-30
1643363213761,1223.9955897,-26
1643363213761,1223.9955925,-28
1643363213761,1223.9955952,-30
1643363213761,1224.4968122,-30
1643363213813,1224.4968246,-38
1643363213813,1224.4968282,-38
1643363213813,1224.4968313,-30
1643363213813,1224.4968353,-26
1643363213813,1224.4968382,-28
1643363213813,1224.496842,-30
1643363213813,1224.4968449,-28
1643363213813,1224.4968496,-26
1643363213813,1224.4968523,-23
1643363213813,1224.4968552,-19
1643363213853,1224.4968581,-16
1643363213853,1224.4968628,-26
1643363213853,1224.4968656,-40
1643363213853,1224.4968684,-40
1643363213853,1224.4968712,-35
1643363213853,1224.4968751,-33
1643363213853,1224.496878,-11
1643363213853,1224.4968817,2
1643363213853,1224.4968846,-9
1643363213853,1224.4968874,-16
1643363213897,1224.4968903,-16
1643363213897,1224.4968931,-30
1643363213897,1224.4968969,-40
1643363213897,1224.4968998,-30
1643363213897,1224.4969044,-26
1643363213897,1224.4969071,-30
1643363213897,1224.49691,-30
1643363213897,1224.4969146,-19
1643363213897,1224.4969185,-11
1643363213897,1224.496923,-14
1643363213941,1224.4969258,2
1643363213941,1224.4969288,83
1643363213941,1224.4969316,301
1643363213941,1224.4969362,717
1643363213941,1224.496939,1021
1643363213941,1224.4969418,717
1643363213941,1224.4969446,68
1643363213941,1224.4969494,-149
1643363213941,1224.4969524,-4
1643363213941,1224.4969564,-9
1643363213985,1224.4969593,-87
1643363213985,1224.4969641,-54
1643363213985,1224.4969668,-42
1643363213985,1224.4969704,-66
1643363214255,1224.4969733,-52
1643363214255,1224.4969761,-30
1643363214255,1224.4969925,-33
1643363214255,1224.4969963,-26
1643363214255,1224.4969992,-14
1643363214255,1224.4970019,-7
1643363214255,1224.4970046,-2
1643363214255,1224.4970074,4
1643363214255,1224.4970102,11
1643363214255,1224.4970275,19
1643363214298,1224.4970378,33
1643363214298,1224.4970416,49
1643363214298,1224.4970445,59
1643363214298,1224.4971506,66
1643363214298,1224.497162,73
1643363214298,1224.4971676,83
1643363214298,1224.4971705,95
1643363214298,1224.4971914,104
1643363214298,1224.4971974,111
1643363214298,1224.4972004,114
1643363214342,1224.4972032,111
1643363214342,1224.497206,111
1643363214342,1224.4972098,109
1643363214342,1224.4972126,95
1643363214342,1224.4972163,73
1643363214342,1224.4972191,42
1643363214342,1224.4972218,14
1643363214342,1224.4972247,-4
1643363214342,1225.0469105,-19
1643363214342,1225.0469223,-33
1643363214391,1225.0469506,-42
1643363214391,1225.0469602,-42
1643363214391,1225.0469636,-40
1643363214391,1225.0469717,-35
1643363214391,1225.0469747,-23
1643363214391,1225.0469799,-14
1643363214391,1225.0469828,-9
1643363214391,1225.0469857,-7
1643363214391,1225.0469886,-14
1643363214391,1225.0469915,-42
1643363214435,1225.0469944,-59
1643363214435,1225.0469973,-47
1643363214435,1225.0470001,-38
1643363214435,1225.0470029,-35
1643363214435,1225.0470064,-35
1643363214435,1225.0470094,-40
1643363214435,1225.0470123,-45
1643363214435,1225.0470165,-45
1643363214435,1225.0470212,-40
1643363214435,1225.0470243,-40
1643363214482,1225.0470291,-42
1643363214482,1225.047032,-47
1643363214482,1225.0470349,-47
1643363214482,1225.0470378,-42
1643363214482,1225.0470417,-40
1643363214482,1225.0470446,-40
1643363214482,1225.0470475,-38
1643363214482,1225.0470504,-40
1643363214482,1225.0470532,-45
1643363214482,1225.0470561,-49
1643363214533,1225.0470589,-45
1643363214533,1225.0470619,-26
1643363214533,1225.0470668,-2
1643363214533,1225.0470699,7
1643363214533,1225.0470759,2
1643363214533,1225.0470786,-11
1643363214533,1225.0470815,-23
1643363214533,1225.0470844,-28
1643363214533,1225.0470872,-21
1643363214533,1225.0470913,-21
1643363214578,1225.047095,-28
1643363214578,1225.0470998,-28
1643363214578,1225.0471027,-19
1643363214578,1225.0471066,-11
1643363214767,1225.0471094,-11
1643363214767,1225.0471122,2
1643363214767,1225.047115,57
1643363214767,1225.0471177,232
1643363214767,1225.0471204,605
1643363214767,1225.0471232,955
1643363214767,1225.047126,772
1643363214767,1225.0471288,133
1643363214767,1225.0471315,-182
1643363214767,1225.0471343,-49
1643363214817,1225.047137,-19
1643363214817,1225.0471397,-118
1643363214817,1225.0471424,-102
1643363214817,1225.0471451,-66
1643363214817,1225.0471478,-85
1643363214817,1225.0471506,-80
1643363214817,1225.0471533,-61
1643363214817,1225.047156,-59
1643363214817,1225.0471588,-52
1643363214817,1225.0471614,-35
1643363214854,1225.0471642,-30
1643363214854,1225.0471669,-26
1643363214854,1225.0471696,-16
1643363214854,1225.0471884,-9
1643363214854,1225.0471959,-2
1643363214854,1225.0471994,4
1643363214854,1225.0472029,14
1643363214854,1225.5974437,38
1643363214854,1225.5974557,49
1643363214854,1225.5974603,57
1643363214899,1225.597465,73
1643363214899,1225.5974679,90
1643363214899,1225.5974709,99
1643363214899,1225.5974755,106
1643363214899,1225.5974798,104
1643363214899,1225.5974835,99
1643363214899,1225.5974863,76
1643363214899,1225.59749,42
1643363214899,1225.5974929,35
1643363214899,1225.5974968,35
1643363214942,1225.5975005,14
1643363214942,1225.5975035,-16
1643363214942,1225.5975063,-35
1643363214942,1225.5975091,-47
1643363214942,1225.5975119,-57
1643363214942,1225.5975146,-59
1643363214942,1225.5975257,-59
1643363214942,1225.5975408,-59
1643363214942,1225.5975469,-52
1643363214942,1225.5975501,-42
1643363214990,1225.597554,-38
1643363214990,1225.5975567,-28
1643363214990,1225.5975594,-16
1643363214990,1225.5975621,-9
1643363214990,1225.5975648,-9
1643363214990,1225.5975674,-16
1643363214990,1225.5975702,-19
1643363214990,1225.597573,-16
1643363214990,1225.5975758,-11
1643363214990,1225.5975786,-11
1643363215027,1225.5975824,-16
1643363215027,1225.5975852,-19
1643363215027,1225.597588,-21
1643363215027,1225.5975908,-21
1643363215027,1225.5975936,-23
1643363215027,1225.5975963,-23
1643363215027,1225.597599,-26
1643363215027,1225.5976018,-33
1643363215027,1225.5976046,-38
1643363215027,1225.5976074,-30
1643363215072,1225.5976102,-35
1643363215072,1225.5976135,-45
1643363215072,1225.5976183,-38
1643363215072,1225.5976211,-30
1643363215319,1225.5976239,-33
1643363215319,1225.5976267,-35
1643363215319,1225.5976293,-35
1643363215319,1225.597632,-33
1643363215319,1225.5976347,-23
1643363215319,1225.5976373,-4
1643363215319,1225.5976401,14
1643363215319,1225.5976427,19
1643363215319,1225.5976454,16
1643363215319,1225.5976481,7
1643363215359,1225.5976507,-9
1643363215359,1225.5976684,-16
1643363215359,1225.597679,-11
1643363215359,1225.597683,-9
1643363215359,1225.5976893,-14
1643363215359,1225.5976938,-11
1643363215359,1225.5976987,0
1643363215359,1225.5977017,4
1643363215359,1225.5977046,4
1643363215359,1225.5977084,16
1643363215399,1225.597723,66
1643363215399,1225.5977377,223
1643363215399,1225.5977444,577
1643363215399,1225.5977477,955
1643363215399,1225.5977514,879
1643363215399,1225.5977541,275
1643363215399,1226.1468675,-156
1643363215399,1226.1468798,-76
1643363215399,1226.1468834,14
1643363215399,1226.1468881,-83
1643363215439,1226.1468922,-95
1643363215439,1226.1468968,-45
1643363215439,1226.1469012,-59
1643363215439,1226.1469059,-80
1643363215439,1226.1469087,-78
1643363215439,1226.1469115,-85
1643363215439,1226.1469144,-80
1643363215439,1226.1469172,-64
1643363215439,1226.1469199,-57
1643363215439,1226.1469227,-54
1643363215479,1226.1469255,-42
1643363215479,1226.1469303,-33
1643363215479,1226.1469346,-28
1643363215479,1226.1469385,-19
1643363215479,1226.1469413,0
1643363215479,1226.1469441,19
1643363215479,1226.1469468,26
1643363215479,1226.1469496,33
1643363215479,1226.1469523,47
1643363215479,1226.1469551,64
1643363215517,1226.1469578,76
1643363215517,1226.1469607,90
1643363215517,1226.1469635,99
1643363215517,1226.1469662,90
1643363215517,1226.1469689,87
1643363215517,1226.1469716,95
1643363215517,1226.1469743,92
1643363215517,1226.1469773,71
1643363215517,1226.146982,52
1643363215517,1226.1469863,23
1643363215556,1226.1469902,-4
1643363215556,1226.1469929,-23
1643363215556,1226.1469958,-42
1643363215556,1226.1469994,-57
1643363215556,1226.1470022,-54
1643363215556,1226.147005,-47
1643363215556,1226.1470079,-47
1643363215556,1226.1470113,-42
1643363215556,1226.1470142,-30
1643363215556,1226.147018,-23
1643363215598,1226.1470208,-14
1643363215598,1226.1470236,-9
1643363215598,1226.1470273,-11
1643363215598,1226.1470301,-14
1643363215910,1226.1470329,-11
1643363215910,1226.1470356,-11
1643363215910,1226.1470383,-11
1643363215910,1226.1470437,-11
1643363215910,1226.1470468,-19
1643363215910,1226.1470495,-28
1643363215910,1226.1470521,-26
1643363215910,1226.1470548,-21
1643363215910,1226.1470574,-21
1643363215910,1226.1470601,-23
1643363215950,1226.1470627,-23
1643363215950,1226.1470653,-23
1643363215950,1226.1470679,-28
1643363215950,1226.1470705,-21
1643363215950,1226.1470731,-14
1643363215950,1226.1470758,-21
1643363215950,1226.1470786,-26
1643363215950,1226.1470814,-26
1643363215950,1226.1470841,-30
1643363215950,1226.1470869,-33
1643363215988,1226.1470897,-23
1643363215988,1226.1470924,-16
1643363215988,1226.1470951,-4
1643363215988,1226.1470979,16
1643363215988,1226.1471018,26
1643363215988,1226.7475267,19
1643363215988,1226.7475399,4
1643363215988,1226.7475433,-7
1643363215988,1226.7475465,-11
1643363215988,1226.747554,-2
1643363216027,1226.7475569,-4
1643363216027,1226.7475598,-21
1643363216027,1226.7475625,-38
1643363216027,1226.7475652,-33
1643363216027,1226.7475678,-28
1643363216027,1226.7475705,-26
1643363216027,1226.7475731,-9
1643363216027,1226.7475759,64
1643363216027,1226.7475804,280
1643363216027,1226.7475834,693
1643363216064,1226.7475863,998
1643363216064,1226.7475891,715
1643363216064,1226.747592,76
1643363216064,1226.7475949,-168
1643363216064,1226.7475977,-26
1643363216064,1226.7476005,-21
1643363216064,1226.7476034,-109
1643363216064,1226.7476061,-83
1643363216064,1226.747609,-54
1643363216064,1226.7476118,-78
1643363216101,1226.7476147,-73
1643363216101,1226.7476176,-49
1643363216101,1226.7476204,-47
1643363216101,1226.7476233,-49
1643363216101,1226.7476261,-45
1643363216101,1226.747629,-38
1643363216101,1226.7476318,-30
1643363216101,1226.7476346,-19
1643363216101,1226.7476375,-11
1643363216101,1226.7476403,-4
1643363216138,1226.7476431,11
1643363216138,1226.7476459,23
1643363216138,1226.7476487,35
1643363216138,1226.7476515,54
1643363216138,1226.7476543,66
1643363216138,1226.7476571,76
1643363216138,1226.7476598,87
1643363216138,1226.7476628,97
1643363216138,1226.7476656,104
1643363216138,1226.7476685,104
1643363216175,1226.7476714,99
1643363216175,1226.7476742,97
1643363216175,1226.747677,99
1643363216175,1226.7476798,95
1643363216530,1226.7476827,73
1643363216530,1226.7476854,45
1643363216530,1226.747688,21
1643363216530,1226.7476907,-2
1643363216530,1226.7476934,-19
1643363216530,1226.7476961,-33
1643363216530,1226.7476987,-42
1643363216530,1226.7477013,-45
1643363216530,1226.747704,-40
1643363216530,1226.7477066,-33
1643363216566,1226.7477092,-26
1643363216566,1226.747712,-19
1643363216566,1226.7477146,-9
1643363216566,1226.7477179,-2
1643363216566,1226.7477208,0
1643363216566,1226.7477234,0
1643363216566,1226.7477261,2
1643363216566,1226.7477289,7
1643363216566,1226.7477316,9
1643363216566,1226.7477343,7
1643363216606,1226.747737,2
1643363216606,1226.7477398,-4
1643363216606,1226.7477435,-7
1643363216606,1226.7477464,-16
1643363216606,1227.3471037,-21
1643363216606,1227.3471157,-19
1643363216606,1227.347121,-21
1643363216606,1227.3471258,-21
1643363216606,1227.3471287,-19
1643363216606,1227.3471315,-21
1643363216648,1227.3471342,-26
1643363216648,1227.347137,-28
1643363216648,1227.3471397,-23
1643363216648,1227.3471425,-2
1643363216648,1227.3471454,14
1643363216648,1227.3471481,2
1643363216648,1227.3471509,-28
1643363216648,1227.3471537,-52
1643363216648,1227.3471566,-59
1643363216648,1227.3471594,-57
1643363216689,1227.3471622,-49
1643363216689,1227.347165,-45
1643363216689,1227.3471678,-49
1643363216689,1227.3471705,-47
1643363216689,1227.3471732,-42
1643363216689,1227.347176,-42
1643363216689,1227.3471787,-49
1643363216689,1227.3471838,-47
1643363216689,1227.3471867,0
1643363216689,1227.3471896,190
1643363216734,1227.3471924,594
1643363216734,1227.3471952,957
1643363216734,1227.347198,777
1643363216734,1227.3472007,144
1643363216734,1227.3472035,-173
1643363216734,1227.3472062,-52
1643363216734,1227.347209,-19
1643363216734,1227.3472118,-111
1643363216734,1227.3472146,-90
1643363216734,1227.3472174,-52
1643363216774,1227.3472202,-73
1643363216774,1227.347223,-78
1643363216774,1227.3472258,-59
1643363216774,1227.3472285,-52
1643363216774,1227.3472313,-47
1643363216774,1227.347234,-35
1643363216774,1227.3472368,-26
1643363216774,1227.3472395,-21
1643363216774,1227.3472422,-16
1643363216774,1227.347245,-11
1643363216816,1227.3472477,-4
1643363216816,1227.3472505,4
1643363216816,1227.3472533,19
1643363216816,1227.347256,35
1643363217092,1227.3472587,42
1643363217092,1227.3472614,54
1643363217092,1227.347264,73
1643363217092,1227.3472667,87
1643363217092,1227.3472695,90
1643363217092,1227.3472721,97
1643363217092,1227.3472746,102
1643363217092,1227.3472772,95
1643363217092,1227.3472799,92
1643363217092,1227.3472826,97
1643363217135,1227.3472852,92
1643363217135,1227.3472879,73
1643363217135,1227.3472905,52
1643363217135,1227.3472931,30
1643363217135,1227.3472958,7
1643363217135,1227.3472984,-4
1643363217135,1227.3473011,-9
1643363217135,1227.3473037,-21
1643363217135,1227.347307,-26
1643363217135,1227.3473098,-14
1643363217177,1227.3473127,-7
1643363217177,1227.3473155,-2
1643363217177,1227.3473183,4
1643363217177,1227.8955984,11
1643363217177,1227.8956094,16
1643363217177,1227.8956127,14
1643363217177,1227.8956156,14
1643363217177,1227.8956183,14
1643363217177,1227.895621,7
1643363217177,1227.8956236,9
1643363217218,1227.8956263,14
1643363217218,1227.8956289,7
1643363217218,1227.8956317,-7
1643363217218,1227.8956344,-14
1643363217218,1227.8956371,-16
1643363217218,1227.8956398,-14
1643363217218,1227.8956425,-16
1643363217218,1227.8956452,-26
1643363217218,1227.8956478,-35
1643363217218,1227.8956505,-52
1643363217258,1227.8956531,-73
1643363217258,1227.8956559,-68
1643363217258,1227.8956585,-57
1643363217258,1227.8956612,-68
1643363217258,1227.8956639,-78
1643363217258,1227.8956665,-68
1643363217258,1227.8956692,-49
1643363217258,1227.8956719,-35
1643363217258,1227.8956746,-26
1643363217258,1227.8956773,-21
1643363217299,1227.8956799,-23
1643363217299,1227.8956826,-38
1643363217299,1227.8956852,-57
1643363217299,1227.8956881,-54
1643363217299,1227.8956907,-45
1643363217299,1227.8956934,-40
1643363217299,1227.8956961,-38
1643363217299,1227.8956991,-33
1643363217299,1227.8957018,-28
1643363217299,1227.8957045,-30
1643363217338,1227.8957071,-33
1643363217338,1227.8957098,-14
1643363217338,1227.8957125,76
1643363217338,1227.8957158,320
1643363217338,1227.8957188,734
1643363217338,1227.8957231,974
1643363217338,1227.895726,617
1643363217338,1227.8957288,2
1643363217338,1227.8957331,-163
1643363217338,1227.8957361,-11
1643363217382,1227.8957397,-33
1643363217382,1227.8957425,-111
1643363217382,1227.8957454,-73
1643363217382,1227.8957482,-57
1643363217624,1227.895751,-78
1643363217624,1227.8957539,-59
1643363217624,1227.8957566,-38
1643363217624,1227.8957593,-40
1643363217624,1227.8957619,-35
1643363217624,1227.8957646,-26
1643363217624,1227.8957673,-26
1643363217624,1227.89577,-19
1643363217624,1227.8957728,-4
1643363217624,1227.8957757,2
1643363217663,1227.8957783,9
1643363217663,1227.8957811,16
1643363217663,1227.8957839,33
1643363217663,1227.8957865,52
1643363217663,1227.8957892,61
1643363217663,1227.8957919,64
1643363217663,1227.8957945,68
1643363217663,1227.8957972,78
1643363217663,1227.8957999,85
1643363217663,1227.8958034,92
1643363217701,1227.895806,104
1643363217701,1227.8958089,109
1643363217701,1228.4430875,102
1643363217701,1228.4431011,95
1643363217701,1228.4431048,95
1643363217701,1228.4431078,80
1643363217701,1228.4431105,54
1643363217701,1228.4431132,30
1643363217701,1228.4431159,4
1643363217701,1228.4431186,-23
1643363217742,1228.4431214,-40
1643363217742,1228.443124,-42
1643363217742,1228.443158,-40
1643363217742,1228.4431643,-38
1643363217742,1228.4431676,-28
1643363217742,1228.4431704,-16
1643363217742,1228.4431731,-21
1643363217742,1228.4431757,-30
1643363217742,1228.4431783,-33
1643363217742,1228.443181,-23
1643363217779,1228.4431837,-23
1643363217779,1228.4431864,-23
1643363217779,1228.443189,-19
1643363217779,1228.4431917,-21
1643363217779,1228.4431943,-23
1643363217779,1228.443197,-23
1643363217779,1228.4431996,-23
1643363217779,1228.443203,-21
1643363217779,1228.443206,-23
1643363217779,1228.4432089,-30
1643363217817,1228.4432117,-35
1643363217817,1228.4432145,-35
1643363217817,1228.4432172,-35
1643363217817,1228.4432201,-35
1643363217817,1228.4432242,-26
1643363217817,1228.443227,-19
1643363217817,1228.4432297,-21
1643363217817,1228.4432324,-23
1643363217817,1228.4432411,-26
1643363217817,1228.4432601,-23
1643363217851,1228.4432787,-9
1643363217851,1228.4432826,7
1643363217851,1228.4432857,19
1643363217851,1228.4433307,21
1643363217851,1228.4433372,9
1643363217851,1228.4433408,-2
1643363217851,1228.4433437,-14
1643363217851,1228.4433465,-16
1643363217851,1228.4433496,-14
1643363217851,1228.4433525,-19
1643363217884,1228.4433554,-26
1643363217884,1228.4433582,-23
1643363217884,1228.4433627,-19
1643363217884,1228.4433656,-21
1643363218231,1228.4433683,-14
1643363218231,1228.4433711,0
1643363218231,1228.4435071,47
1643363218231,1228.4435127,225
1643363218231,1228.4435158,594
1643363218231,1228.4435185,926
1643363218231,1228.4435211,786
1643363218231,1228.4435237,206
1643363218231,1228.4435264,-163
1643363218231,1228.443529,-83
1643363218264,1228.4435318,-14
1643363218264,1228.4435345,-97
1643363218264,1228.4435372,-102
1643363218264,1228.4435399,-59
1643363218264,1228.4435426,-73
1643363218264,1228.4435453,-80
1643363218264,1228.4435479,-59
1643363218264,1228.4435505,-49
1643363218264,1228.4435532,-45
1643363218264,1228.4435558,-40
1643363218295,1228.4435585,-45
1643363218295,1229.0412553,-47
1643363218295,1229.0412675,-33
1643363218295,1229.0412726,-21
1643363218295,1229.0412776,-16
1643363218295,1229.0412808,-4
1643363218295,1229.0412846,11
1643363218295,1229.0412876,16
1643363218295,1229.0412906,7
1643363218295,1229.0412953,9
1643363218326,1229.0412982,28
1643363218326,1229.0413011,40
1643363218326,1229.041304,42
1643363218326,1229.0413067,49
1643363218326,1229.0413095,52
1643363218326,1229.0413123,49
1643363218326,1229.0413151,54
1643363218326,1229.0413179,59
1643363218326,1229.0413207,54
1643363218326,1229.0413235,38
1643363218356,1229.0413264,11
1643363218356,1229.0413293,-11
1643363218356,1229.0413322,-35
1643363218356,1229.041335,-57
1643363218356,1229.0413379,-64
1643363218356,1229.0413408,-57
1643363218356,1229.0413437,-52
1643363218356,1229.0413465,-54
1643363218356,1229.0413513,-49
1643363218356,1229.0413557,-38
1643363218388,1229.0413596,-33
1643363218388,1229.0413625,-28
1643363218388,1229.0413654,-28
1643363218388,1229.0413693,-30
1643363218388,1229.0413722,-28
1643363218388,1229.0413751,-19
1643363218388,1229.041378,-11
1643363218388,1229.0413827,-9
1643363218388,1229.0413872,-7
1643363218388,1229.0413902,-11
1643363218423,1229.0413948,-21
1643363218423,1229.0413978,-23
1643363218423,1229.0414007,-19
1643363218423,1229.0414036,-16
1643363218423,1229.0414065,-19
1643363218423,1229.0414093,-19
1643363218423,1229.0414122,-21
1643363218423,1229.041415,-26
1643363218423,1229.0414178,-26
1643363218423,1229.0414207,-19
1643363218454,1229.0414235,-11
1643363218454,1229.0414264,-11
1643363218454,1229.0414292,-16
1643363218454,1229.0414321,-19
1643363218723,1229.041435,-26
1643363218723,1229.0414378,-30
1643363218723,1229.0414404,-19
1643363218723,1229.0414431,-2
1643363218723,1229.0414459,16
1643363218723,1229.0414486,23
1643363218723,1229.0414513,19
1643363218723,1229.0414539,4
1643363218723,1229.0414566,-16
1643363218723,1229.0414593,-28
1643363218754,1229.041462,-28
1643363218754,1229.0414647,-23
1643363218754,1229.0414674,-21
1643363218754,1229.0414701,-28
1643363218754,1229.0414728,-26
1643363218754,1229.0414754,-19
1643363218754,1229.0414781,-19
1643363218754,1229.0414809,-11
1643363218754,1229.0414839,30
1643363218754,1229.041489,173
1643363218789,1229.5412479,494
1643363218789,1229.5412606,864
1643363218789,1229.541264,836
1643363218789,1229.5412671,292
1643363218789,1229.5412724,-125
1643363218789,1229.5412763,-68
1643363218789,1229.5412793,7
1643363218789,1229.5412822,-78
1643363218789,1229.5412852,-85
1643363218789,1229.5412908,-45
1643363218820,1229.5412937,-64
1643363218820,1229.5412966,-80
1643363218820,1229.5413,-83
1643363218820,1229.5413046,-95
1643363218820,1229.5413085,-87
1643363218820,1229.5413132,-68
1643363218820,1229.5413161,-61
1643363218820,1229.541319,-52
1643363218820,1229.5413243,-40
1643363218820,1229.5413273,-38
1643363218853,1229.5413303,-26
1643363218853,1229.5413349,-4
1643363218853,1229.5413396,2
1643363218853,1229.5413443,9
1643363218853,1229.5413471,28
1643363218853,1229.54135,42
1643363218853,1229.5413548,52
1643363218853,1229.5413585,66
1643363218853,1229.5413614,78
1643363218853,1229.5413642,87
1643363218882,1229.5413671,85
1643363218882,1229.54137,66
1643363218882,1229.5413741,73
1643363218882,1229.5413769,99
1643363218882,1229.5413799,87
1643363218882,1229.5413848,57
1643363218882,1229.5413876,47
1643363218882,1229.5413905,30
1643363218882,1229.5413934,-2
1643363218882,1229.5413975,-26
1643363218913,1229.5414004,-35
1643363218913,1229.5414033,-40
1643363218913,1229.5414062,-42
1643363218913,1229.541409,-40
1643363218913,1229.5414121,-38
1643363218913,1229.541417,-38
1643363218913,1229.5414199,-21
1643363218913,1229.5414228,-7
1643363218913,1229.5414276,-7
1643363218913,1229.5414304,-7
1643363218945,1229.5414334,2
1643363218945,1229.5414374,2
1643363218945,1229.5414404,-4
1643363218945,1229.5414452,-7
1643363219375,1229.5414481,-4
1643363219375,1229.5414511,0
1643363219375,1229.5414539,-2
1643363219375,1229.5414566,-23
1643363219375,1229.5414596,-28
1643363219375,1229.5414625,-16
1643363219375,1229.5414652,-11
1643363219375,1229.541468,-23
1643363219375,1229.5414708,-30
1643363219375,1229.5414736,-21
1643363219408,1229.5414763,-23
1643363219408,1229.5414791,-35
1643363219408,1229.5414819,-26
1643363219408,1229.5414846,-19
1643363219408,1229.5414874,-33
1643363219408,1229.5414901,-38
1643363219408,1229.5414939,-28
1643363219408,1229.5414966,-19
1643363219408,1229.5414993,-2
1643363219408,1230.1943445,14
1643363219445,1230.1943595,7
1643363219445,1230.1943638,-21
1643363219445,1230.194369,-61
1643363219445,1230.194372,-92
1643363219445,1230.1943767,-99
1643363219445,1230.1943797,-92
1643363219445,1230.1943843,-87
1643363219445,1230.1943872,-87
1643363219445,1230.1943918,-90
1643363219445,1230.1943948,-90
1643363219483,1230.1943977,-85
1643363219483,1230.1944025,-71
1643363219483,1230.1944055,-16
1643363219483,1230.1944108,133
1643363219483,1230.1944137,413
1643363219483,1230.1944187,696
1643363219483,1230.1944217,634
1643363219483,1230.1944245,161
1643363219483,1230.1944272,-178
1643363219483,1230.19443,-109
1643363219526,1230.1944328,-42
1643363219526,1230.1944356,-116
1643363219526,1230.1944383,-116
1643363219526,1230.1944411,-71
1643363219526,1230.1944438,-71
1643363219526,1230.1944465,-76
1643363219526,1230.1944492,-68
1643363219526,1230.1944519,-66
1643363219526,1230.1944546,-52
1643363219526,1230.194458,-40
1643363219568,1230.1944607,-35
1643363219568,1230.1944634,-30
1643363219568,1230.1944661,-21
1643363219568,1230.1944688,-16
1643363219568,1230.1944716,-4
1643363219568,1230.1944743,2
1643363219568,1230.194477,14
1643363219568,1230.1944801,35
1643363219568,1230.1944828,54
1643363219568,1230.1944855,61
1643363219613,1230.1944882,71
1643363219613,1230.1944909,80
1643363219613,1230.1944936,80
1643363219613,1230.1944962,80
1643363219613,1230.194499,85
1643363219613,1230.1945111,87
1643363219613,1230.1945169,85
1643363219613,1230.1945198,78
1643363219613,1230.1945225,76
1643363219613,1230.1945252,61
1643363219658,1230.1945297,38
1643363219658,1230.1945327,23
1643363219658,1230.1945355,11
1643363219658,1230.1945388,-2
1643363220038,1230.1945429,-11
1643363220038,1230.1945457,-19
1643363220038,1230.1945484,-21
1643363220038,1230.1945511,-16
1643363220038,1230.1945538,-11
1643363220038,1230.1945565,-9
1643363220038,1230.1945592,-2
1643363220038,1230.194563,11
1643363220038,1230.1945657,16
1643363220038,1230.1945684,21
1643363220078,1230.1945711,23
1643363220078,1230.1945737,16
1643363220078,1230.1945765,16
1643363220078,1230.1945792,16
1643363220078,1230.194582,11
1643363220078,1230.1946133,9
1643363220078,1230.1946294,14
1643363220078,1230.1946337,11
1643363220078,1230.8426454,4
1643363220078,1230.8426617,-2
1643363220119,1230.8426802,-7
1643363220119,1230.8426882,-2
1643363220119,1230.8426918,2
1643363220119,1230.8426965,4
1643363220119,1230.8426995,0
1643363220119,1230.8427024,-4
1643363220119,1230.8427052,-7
1643363220119,1230.842708,-21
1643363220119,1230.8427109,-21
1643363220119,1230.8427137,-7
1643363220162,1230.8427176,-7
1643363220162,1230.8427204,-11
1643363220162,1230.8427233,-7
1643363220162,1230.8427261,-2
1643363220162,1230.8427289,7
1643363220162,1230.8427318,28
1643363220162,1230.8427347,40
1643363220162,1230.8427404,19
1643363220162,1230.8427432,-9
1643363220162,1230.8427461,-30
1643363220205,1230.8427488,-45
1643363220205,1230.8427517,-52
1643363220205,1230.8427545,-57
1643363220205,1230.8427574,-54
1643363220205,1230.8427602,-49
1643363220205,1230.842763,-42
1643363220205,1230.842766,-35
1643363220205,1230.8427689,-28
1643363220205,1230.8427717,-4
1643363220205,1230.8427746,76
1643363220248,1230.8427774,278
1643363220248,1230.8427802,617
1643363220248,1230.842783,860
1643363220248,1230.842786,620
1643363220248,1230.8427889,66
1643363220248,1230.8427918,-156
1643363220248,1230.8427947,-33
1643363220248,1230.8427975,-16
1643363220248,1230.8428003,-97
1643363220248,1230.8428031,-76
1643363220290,1230.8428059,-47
1643363220290,1230.8428087,-68
1643363220290,1230.8428116,-73
1643363220290,1230.8428145,-57
1643363220290,1230.8428173,-49
1643363220290,1230.8428201,-45
1643363220290,1230.842823,-38
1643363220290,1230.8428258,-26
1643363220290,1230.8428286,-14
1643363220290,1230.8428315,-7
1643363220334,1230.8428343,0
1643363220334,1230.8428371,11
1643363220334,1230.8428399,21
1643363220334,1230.8428427,21
1643363220422,1230.8428456,28
1643363220422,1230.8428483,47
1643363220422,1230.842851,64
1643363220422,1230.8428536,71
1643363220422,1230.8428564,80
1643363220422,1230.8428591,87
1643363220422,1230.8428617,90
1643363220422,1230.8428644,95
1643363220422,1230.842867,102
1643363220422,1230.8428696,102
1643363220465,1230.8428723,102
1643363220465,1230.8428749,99
1643363220465,1230.8428775,85
1643363220465,1230.8428802,66
1643363220465,1230.8428828,52
1643363220465,1230.8428854,35
1643363220465,1230.842888,19
1643363220465,1231.2475087,7
1643363220465,1231.2475198,-2
1643363220465,1231.2475231,0
1643363220508,1231.2475259,9
1643363220508,1231.2475286,16
1643363220508,1231.2475312,23
1643363220508,1231.2475349,28
1643363220508,1231.2475377,26
1643363220508,1231.2475403,21
1643363220508,1231.2475429,26
1643363220508,1231.2475455,33
1643363220508,1231.2475482,30
1643363220508,1231.2475508,28
1643363220552,1231.2475534,30
1643363220552,1231.247556,23
1643363220552,1231.2475586,11
1643363220552,1231.2475612,14
1643363220552,1231.2475638,21
1643363220552,1231.2475664,19
1643363220552,1231.247569,14
1643363220552,1231.2475716,2
1643363220552,1231.2475742,-14
1643363220552,1231.2475768,-16
1643363220596,1231.2475794,-11
1643363220596,1231.2475821,-14
1643363220596,1231.2475847,-14
1643363220596,1231.2475873,-11
1643363220596,1231.2475899,-19
1643363220596,1231.2475926,-19
1643363220596,1231.2475952,-14
1643363220596,1231.2475978,-19
1643363220596,1231.2476004,-19
1643363220596,1231.2476032,-14
1643363220639,1231.247606,-23
1643363220639,1231.2476088,-42
1643363220639,1231.2476116,-45
1643363220639,1231.2476145,-38
1643363220639,1231.2476195,-23
1643363220639,1231.2476223,-2
1643363220639,1231.2476252,4
1643363220639,1231.2476279,-4
1643363220639,1231.247631,-21
1643363220639,1231.247649,-33
1643363220682,1231.2476528,-35
1643363220682,1231.2476556,-28
1643363220682,1231.2476584,-26
1643363220682,1231.2476612,-28
1643363220682,1231.247664,-26
1643363220682,1231.2476667,-26
1643363220682,1231.2476695,-28
1643363220682,1231.2476723,-23
1643363220682,1231.247675,9
1643363220682,1231.2476777,118
1643363220720,1231.2476805,392
1643363220720,1231.2476832,803
1643363220720,1231.2476859,964
1643363220720,1231.2476887,537
1643363220976,1231.2476914,-28
1643363220976,1231.2476941,-125
1643363220976,1231.2476967,0
1643363220976,1231.2476993,-42
1643363220976,1231.2477019,-99
1643363220976,1231.2477046,-59
1643363220976,1231.2477072,-47
1643363220976,1231.2477097,-61
1643363220976,1231.2477125,-49
1643363220976,1231.2477151,-47
1643363221012,1231.2477176,-45
1643363221012,1231.2477201,-23
1643363221012,1231.2477227,-9
1643363221012,1231.2477253,-11
1643363221012,1231.2477279,-4
1643363221012,1231.2477305,7
1643363221012,1231.7975964,11
1643363221012,1231.7976087,21
1643363221012,1231.7976141,35
1643363221012,1231.7976189,49
1643363221048,1231.7976237,64
1643363221048,1231.7976283,73
1643363221048,1231.7976312,78
1643363221048,1231.7976341,92
1643363221048,1231.797637,109
1643363221048,1231.7976398,116
1643363221048,1231.7976427,121
1643363221048,1231.7976456,123
1643363221048,1231.7976485,114
1643363221048,1231.7976514,87
1643363221083,1231.7976543,78
1643363221083,1231.7976572,78
1643363221083,1231.7976612,57
1643363221083,1231.797664,33
1643363221083,1231.7976669,9
1643363221083,1231.7976699,-16
1643363221083,1231.7976747,-33
1643363221083,1231.7977072,-38
1643363221083,1231.797711,-40
1643363221083,1231.7977158,-42
1643363221118,1231.7977187,-35
1643363221118,1231.7977216,-28
1643363221118,1231.7977244,-21
1643363221118,1231.7977273,-19
1643363221118,1231.7977301,-21
1643363221118,1231.7977331,-26
1643363221118,1231.7977359,-23
1643363221118,1231.7977388,-19
1643363221118,1231.7977428,-16
1643363221118,1231.7977455,-11
1643363221153,1231.7977483,-9
1643363221153,1231.797751,-14
1643363221153,1231.7977537,-14
1643363221153,1231.7977574,-11
1643363221153,1231.7977603,-19
1643363221153,1231.7977632,-26
1643363221153,1231.797766,-21
1643363221153,1231.7977688,-19
1643363221153,1231.7977717,-23
1643363221153,1231.7977745,-21
1643363221199,1231.7977773,-14
1643363221199,1231.7977802,-14
1643363221199,1231.797784,-16
1643363221199,1231.7977869,-9
1643363221199,1231.7977897,-14
1643363221199,1231.7977925,-23
1643363221199,1231.7977953,-14
1643363221199,1231.7977982,2
1643363221199,1231.7978011,19
1643363221199,1231.7978039,28
1643363221225,1231.7978079,11
1643363221225,1231.7978108,-9
1643363221225,1231.7978152,-9
1643363221225,1231.797819,-7
1643363221709,1231.7978219,-14
1643363221709,1231.7978248,-11
1643363221709,1231.7978275,-9
1643363221709,1231.7978302,-7
1643363221709,1231.7978329,2
1643363221709,1231.7978356,7
1643363221709,1231.7978384,0
1643363221709,1231.7978411,14
1643363221709,1231.7978438,114
1643363221709,1231.7978465,399
1643363221746,1231.7978492,822
1643363221746,1231.7978518,960
1643363221746,1231.7978546,496
1643363221746,1231.7978573,-35
1643363221746,1231.7978601,-68
1643363221746,1232.5428724,35
1643363221746,1232.542884,-38
1643363221746,1232.5428875,-71
1643363221746,1232.5428905,-30
1643363221746,1232.5428944,-40
1643363221788,1232.5428972,-54
1643363221788,1232.5429001,-30
1643363221788,1232.542904,-26
1643363221788,1232.5429067,-38
1643363221788,1232.5429094,-26
1643363221788,1232.5429123,-21
1643363221788,1232.5429151,-45
1643363221788,1232.542918,-61
1643363221788,1232.5429208,-45
1643363221788,1232.5429237,-28
1643363221820,1232.5429273,-26
1643363221820,1232.5429301,-14
1643363221820,1232.5429328,2
1643363221820,1232.5429377,11
1643363221820,1232.5429441,30
1643363221820,1232.542947,49
1643363221820,1232.5429497,54
1643363221820,1232.5429527,59
1643363221820,1232.5429555,68
1643363221820,1232.5429584,68
1643363221854,1232.5429634,66
1643363221854,1232.5429663,68
1643363221854,1232.542969,66
1643363221854,1232.5429719,59
1643363221854,1232.5429751,45
1643363221854,1232.5429798,23
1643363221854,1232.5429826,0
1643363221854,1232.5429854,-19
1643363221854,1232.5429881,-38
1643363221854,1232.5429908,-54
1643363221888,1232.5429936,-66
1643363221888,1232.5429963,-68
1643363221888,1232.542999,-68
1643363221888,1232.5430018,-61
1643363221888,1232.5430045,-49
1643363221888,1232.5430073,-35
1643363221888,1232.5430101,-26
1643363221888,1232.543013,-26
1643363221888,1232.543018,-30
1643363221888,1232.5430209,-23
1643363221923,1232.5430255,-14
1643363221923,1232.5430284,-16
1643363221923,1232.543033,-21
1643363221923,1232.5430359,-16
1643363221923,1232.5430409,-16
1643363221923,1232.5430438,-23
1643363221923,1232.5430467,-21
1643363221923,1232.5430513,-23
1643363221923,1232.5430542,-26
1643363221923,1232.5430586,-26
1643363221958,1232.5430615,-26
1643363221958,1232.5430662,-23
1643363221958,1232.5430691,-26
1643363221958,1232.5430738,-38
1643363222091,1232.5430767,-35
1643363222091,1232.5430799,-33
1643363222091,1232.5430827,-40
1643363222091,1232.5430854,-35
1643363222091,1232.5430881,-16
1643363222091,1232.5430908,-4
1643363222091,1232.5430934,-4
1643363222091,1232.5430961,-14
1643363222091,1232.5430988,-33
1643363222091,1232.5431019,-49
1643363222123,1232.5431046,-45
1643363222123,1232.5431073,-40
1643363222123,1232.5431101,-45
1643363222123,1232.5431128,-42
1643363222123,1232.8972296,-35
1643363222123,1232.897245,-33
1643363222123,1232.8972487,-30
1643363222123,1232.8972524,-33
1643363222123,1232.8972571,-38
1643363222123,1232.8972598,2
1643363222158,1232.8972625,194
1643363222158,1232.8972653,605
1643363222158,1232.897268,960
1643363222158,1232.8972715,746
1643363222158,1232.8972745,125
1643363222158,1232.8972773,-144
1643363222158,1232.8972802,-26
1643363222158,1232.897283,-28
1643363222158,1232.8972858,-121
1643363222158,1232.8972887,-92
1643363222191,1232.8972915,-76
1643363222191,1232.8972943,-109
1643363222191,1232.8972973,-99
1643363222191,1232.8973001,-76
1643363222191,1232.8973033,-83
1643363222191,1232.897306,-80
1643363222191,1232.8973087,-68
1643363222191,1232.8973113,-66
1643363222191,1232.8973141,-57
1643363222191,1232.8973181,-42
1643363222225,1232.897321,-30
1643363222225,1232.8973239,-23
1643363222225,1232.8973268,-16
1643363222225,1232.8973297,-16
1643363222225,1232.8973326,-16
1643363222225,1232.8973355,2
1643363222225,1232.8973385,26
1643363222225,1232.897343,33
1643363222225,1232.8973465,38
1643363222225,1232.8973496,47
1643363222259,1232.8973526,47
1643363222259,1232.8973556,47
1643363222259,1232.8973617,54
1643363222259,1232.8973648,57
1643363222259,1232.8973676,52
1643363222259,1232.8973705,45
1643363222259,1232.8973734,30
1643363222259,1232.8973762,9
1643363222259,1232.897379,-7
1643363222259,1232.897382,-21
1643363222296,1232.8973859,-38
1643363222296,1232.8973892,-42
1643363222296,1232.8973939,-40
1643363222296,1232.8973969,-42
1643363222296,1232.8974003,-38
1643363222296,1232.8974033,-30
1643363222296,1232.897408,-30
1643363222296,1232.8974119,-26
1643363222296,1232.8974147,-19
1643363222296,1232.8974488,-14
1643363222332,1232.8974773,-7
1643363222332,1232.8975044,0
1643363222332,1232.8975171,-2
1643363222332,1232.8975222,-4
1643363222733,1232.8975276,-4
1643363222733,1232.8975306,-7
1643363222733,1232.8975334,-9
1643363222733,1232.8975361,-7
1643363222733,1232.8975388,-7
1643363222733,1232.8975415,-14
1643363222733,1232.8975442,-16
1643363222733,1232.8975469,-11
1643363222733,1232.8975496,-11
1643363222733,1232.8975523,-19
1643363222770,1232.897555,-21
1643363222770,1232.8975647,-14
1643363222770,1232.8975751,-14
1643363222770,1233.5462025,-21
1643363222770,1233.5462295,-21
1643363222770,1233.5462402,-7
1643363222770,1233.5462457,11
1643363222770,1233.5462489,26
1643363222770,1233.5462535,21
1643363222770,1233.5462576,0
1643363222808,1233.5462605,-21
1643363222808,1233.5462632,-49
1643363222808,1233.5462662,-71
1643363222808,1233.546269,-76
1643363222808,1233.5462891,-73
1643363222808,1233.546297,-71
1643363222808,1233.5463076,-61
1643363222808,1233.5463247,-59
1643363222808,1233.546331,-61
1643363222808,1233.5463348,-61
1643363222841,1233.5463397,-40
1643363222841,1233.5463428,61
1643363222841,1233.5463467,342
1643363222841,1233.5463495,762
1643363222841,1233.5463523,910
1643363222841,1233.5463552,463
1643363222841,1233.5463579,-61
1643363222841,1233.5463607,-114
1643363222841,1233.5463636,-16
1643363222841,1233.5463664,-78
1643363222875,1233.5463692,-114
1643363222875,1233.5463721,-68
1643363222875,1233.5463761,-66
1643363222875,1233.5463789,-80
1643363222875,1233.5463817,-66
1643363222875,1233.5463845,-54
1643363222875,1233.5463873,-49
1643363222875,1233.5463901,-42
1643363222875,1233.5463928,-33
1643363222875,1233.5463957,-26
1643363222908,1233.5463984,-16
1643363222908,1233.5464012,-9
1643363222908,1233.546404,2
1643363222908,1233.5464068,14
1643363222908,1233.5464118,21
1643363222908,1233.5464146,33
1643363222908,1233.5464174,45
1643363222908,1233.5464202,52
1643363222908,1233.5464231,68
1643363222908,1233.5464259,85
1643363222942,1233.5464287,97
1643363222942,1233.5464315,106
1643363222942,1233.5464344,111
1643363222942,1233.5464372,104
1643363222942,1233.54644,104
1643363222942,1233.5464428,106
1643363222942,1233.5464457,99
1643363222942,1233.5464485,85
1643363222942,1233.5464512,66
1643363222942,1233.546454,45
1643363222974,1233.5464568,19
1643363222974,1233.5464596,-2
1643363222974,1233.5464624,-14
1643363222974,1233.5464653,-23
1643363223461,1233.5464681,-26
1643363223461,1233.5464708,-23
1643363223461,1233.5464735,-16
1643363223461,1233.5464762,-7
1643363223461,1233.546479,2
1643363223461,1233.5464816,7
1643363223461,1233.5464843,9
1643363223461,1233.5464869,11
1643363223461,1233.5464896,14
1643363223461,1233.5464923,16
1643363223497,1233.546495,14
1643363223497,1233.5464977,4
1643363223497,1234.2930045,0
1643363223497,1234.2930209,-2
1643363223497,1234.2930251,-4
1643363223497,1234.29303,-9
1643363223497,1234.2930331,-9
1643363223497,1234.2930361,-7
1643363223497,1234.2930388,-9
1643363223497,1234.2930417,-14
1643363223535,1234.2930445,-16
1643363223535,1234.2930473,-11
1643363223535,1234.2930501,-11
1643363223535,1234.2930529,-16
1643363223535,1234.2930557,-23
1643363223535,1234.2930586,-26
1643363223535,1234.2930615,-16
1643363223535,1234.2930643,4
1643363223535,1234.2930672,19
1643363223535,1234.2930701,16
1643363223570,1234.293073,2
1643363223570,1234.2930758,-21
1643363223570,1234.2930788,-47
1643363223570,1234.2930817,-52
1643363223570,1234.2930845,-45
1643363223570,1234.2930874,-45
1643363223570,1234.2930903,-47
1643363223570,1234.2930931,-45
1643363223570,1234.293096,-47
1643363223570,1234.2930988,-49
1643363223608,1234.2931016,-52
1643363223608,1234.2931045,-35
1643363223608,1234.2931074,83
1643363223608,1234.2931102,425
1643363223608,1234.2931131,881
1643363223608,1234.2931159,952
1643363223608,1234.2931189,396
1643363223608,1234.2931218,-123
1643363223608,1234.2931246,-106
1643363223608,1234.2931275,-7
1643363223647,1234.2931303,-99
1643363223647,1234.2931331,-123
1643363223647,1234.2931359,-76
1643363223647,1234.2931387,-85
1643363223647,1234.2931416,-92
1643363223647,1234.2931444,-68
1643363223647,1234.2931472,-61
1643363223647,1234.2931501,-64
1643363223647,1234.2931529,-54
1643363223647,1234.2931558,-38
1643363223683,1234.2931587,-28
1643363223683,1234.2931626,-23
1643363223683,1234.2931654,-14
1643363223683,1234.2931683,-2
1643363223683,1234.2931711,7
1643363223683,1234.293174,16
1643363223683,1234.2931768,30
1643363223683,1234.2931797,42
1643363223683,1234.2931825,54
1643363223683,1234.2931853,68
1643363223723,1234.2931882,83
1643363223723,1234.293191,90
1643363223723,1234.2931938,95
1643363223723,1234.2931966,95
1643363223935,1234.2931994,85
1643363223935,1234.2932109,80
1643363223935,1234.2932145,73
1643363223935,1234.2932172,64
1643363223935,1234.2932496,47
1643363223935,1234.2932574,23
1643363223935,1234.2932634,2
1643363223935,1234.2932665,-9
1643363223935,1234.2932713,-19
1643363223935,1234.293275,-30
1643363223971,1234.293278,-38
1643363223971,1234.744211,-38
1643363223971,1234.7442231,-33
1643363223971,1234.7442265,-23
1643363223971,1234.7442316,-16
1643363223971,1234.7442347,-7
1643363223971,1234.7442377,0
1643363223971,1234.7442417,2
1643363223971,1234.7442457,7
1643363223971,1234.7442487,11
1643363224006,1234.7442515,11
1643363224006,1234.7442544,14
1643363224006,1234.7442594,16
1643363224006,1234.7442634,9
1643363224006,1234.744268,7
1643363224006,1234.7442709,11
1643363224006,1234.7442739,9
1643363224006,1234.7442768,4
1643363224006,1234.7442816,4
1643363224006,1234.7442844,-2
1643363224042,1234.7442873,-9
1643363224042,1234.744292,-11
1643363224042,1234.7442948,-9
1643363224042,1234.7442976,-7
1643363224042,1234.7443005,-9
1643363224042,1234.7443044,-7
1643363224042,1234.7443072,-7
1643363224042,1234.74431,-9
1643363224042,1234.7443128,-9
1643363224042,1234.7443156,-11
1643363224077,1234.7443184,-14
1643363224077,1234.7443214,-7
1643363224077,1234.7443262,-2
1643363224077,1234.744331,4
1643363224077,1234.7443356,21
1643363224077,1234.7443394,19
1643363224077,1234.7443441,0
1643363224077,1234.7443487,-14
1643363224077,1234.7443535,-16
1643363224077,1234.7443578,-19
1643363224113,1234.7443627,-19
1643363224113,1234.7443655,-16
1643363224113,1234.7443684,-11
1643363224113,1234.7443713,-7
1643363224113,1234.7443741,-14
1643363224113,1234.744377,-21
1643363224113,1234.7443818,-9
1643363224113,1234.7443856,54
1643363224113,1234.7443909,278
1643363224113,1234.7443942,712
1643363224150,1234.7443992,1028
1643363224150,1234.7444021,712
1643363224150,1234.744407,42
1643363224150,1234.74441,-180
1643363224150,1234.7444148,-19
1643363224150,1234.7444192,-26
1643363224150,1234.744423,-123
1643363224150,1234.744426,-90
1643363224150,1234.7444297,-76
1643363224150,1234.7444326,-104
1643363224186,1234.7444354,-83
1643363224186,1234.7444383,-59
1643363224186,1234.7444423,-68
1643363224186,1234.7444452,-64
1643363224380,1234.7444501,-42
1643363224380,1234.7444537,-38
1643363224380,1234.7444565,-33
1643363224380,1234.7444592,-16
1643363224380,1234.7444619,-7
1643363224380,1234.7444646,4
1643363224380,1234.7444673,16
1643363224380,1234.7444699,26
1643363224380,1234.7444727,38
1643363224380,1234.7444754,49
1643363224421,1235.1964567,66
1643363224421,1235.1964686,83
1643363224421,1235.1964735,97
1643363224421,1235.1964784,102
1643363224421,1235.1964813,106
1643363224421,1235.1964841,104
1643363224421,1235.1964888,99
1643363224421,1235.1964931,102
1643363224421,1235.1964979,102
1643363224421,1235.1965007,85
1643363224464,1235.1965035,52
1643363224464,1235.1965063,19
1643363224464,1235.1965091,0
1643363224464,1235.1965139,-16
1643363224464,1235.1965184,-33
1643363224464,1235.196523,-38
1643363224464,1235.1965272,-42
1643363224464,1235.1965317,-47
1643363224464,1235.196536,-40
1643363224464,1235.1965406,-33
1643363224505,1235.1965448,-30
1643363224505,1235.1965494,-21
1643363224505,1235.1965537,-11
1643363224505,1235.1965583,-14
1643363224505,1235.196561,-19
1643363224505,1235.1965638,-11
1643363224505,1235.1965666,-4
1643363224505,1235.1965694,-4
1643363224505,1235.1965722,-4
1643363224505,1235.1965769,-9
1643363224548,1235.1965814,-23
1643363224548,1235.1965853,-26
1643363224548,1235.1965995,-23
1643363224548,1235.1966232,-26
1643363224548,1235.1966292,-23
1643363224548,1235.1966326,-21
1643363224548,1235.1966374,-28
1643363224548,1235.196641,-28
1643363224548,1235.1966448,-23
1643363224548,1235.1966477,-16
1643363224589,1235.1966525,-16
1643363224589,1235.1966554,-23
1643363224589,1235.1966605,-26
1643363224589,1235.1966646,-21
1643363224589,1235.1966675,-19
1643363224589,1235.1966705,-16
1643363224589,1235.1966755,-14
1643363224589,1235.1966784,-16
1643363224589,1235.1966812,-26
1643363224589,1235.196684,-30
1643363224633,1235.1966869,-26
1643363224633,1235.1966898,-11
1643363224633,1235.1966926,9
1643363224633,1235.1966964,26
1643363224633,1235.1966992,21
1643363224633,1235.1967019,4
1643363224633,1235.1967048,-7
1643363224633,1235.1967076,-7
1643363224633,1235.1967104,-9
1643363224633,1235.1967149,-9
1643363224677,1235.1967177,-7
1643363224677,1235.1967205,-4
1643363224677,1235.1967233,-11
1643363224677,1235.1967281,-14
1643363225042,1235.1967322,-11
1643363225042,1235.196735,-4
1643363225042,1235.1967378,33
1643363225042,1235.1967404,159
1643363225042,1235.1967431,444
1643363225042,1235.1967457,838
1643363225042,1235.1967483,931
1643363225042,1235.1967509,434
1643363225042,1235.1967536,-104
1643363225042,1235.841442,-118
1643363225083,1235.8414546,19
1643363225083,1235.8414588,-59
1643363225083,1235.8414636,-109
1643363225083,1235.8414675,-57
1643363225083,1235.8414721,-57
1643363225083,1235.8414751,-76
1643363225083,1235.8414791,-54
1643363225083,1235.8414821,-47
1643363225083,1235.8414849,-52
1643363225083,1235.8414877,-45
1643363225123,1235.8414905,-40
1643363225123,1235.8414934,-35
1643363225123,1235.8414962,-21
1643363225123,1235.841499,-14
1643363225123,1235.8415019,-26
1643363225123,1235.8415047,-35
1643363225123,1235.8415075,-21
1643363225123,1235.8415104,0
1643363225123,1235.8415133,9
1643363225123,1235.8415161,23
1643363225165,1235.8415189,38
1643363225165,1235.8415218,45
1643363225165,1235.8415246,57
1643363225165,1235.8415274,68
1643363225165,1235.8415302,73
1643363225165,1235.8415331,73
1643363225165,1235.8415358,78
1643363225165,1235.8415386,76
1643363225165,1235.8415414,68
1643363225165,1235.8415443,64
1643363225207,1235.8415471,52
1643363225207,1235.8415499,28
1643363225207,1235.8415527,4
1643363225207,1235.8415554,-16
1643363225207,1235.8415605,-35
1643363225207,1235.8415636,-38
1643363225207,1235.8415665,-35
1643363225207,1235.8415694,-33
1643363225207,1235.8415722,-33
1643363225207,1235.8415751,-33
1643363225248,1235.841578,-35
1643363225248,1235.8415809,-35
1643363225248,1235.8415839,-23
1643363225248,1235.8415888,-14
1643363225248,1235.8415917,-11
1643363225248,1235.8415945,-9
1643363225248,1235.8415974,-7
1643363225248,1235.8416002,-4
1643363225248,1235.8416031,-2
1643363225248,1235.8416069,-2
1643363225290,1235.8416097,-2
1643363225290,1235.8416125,-2
1643363225290,1235.8416154,-4
1643363225290,1235.8416183,-11
1643363225290,1235.8416212,-19
1643363225290,1235.841624,-16
1643363225290,1235.8416268,-14
1643363225290,1235.8416297,-19
1643363225290,1235.8416325,-21
1643363225290,1235.8416354,-21
1643363225332,1235.8416391,-19
1643363225332,1235.8416419,-16
1643363225332,1235.8416448,-11
1643363225332,1235.8416477,-11
1643363225420,1235.8416506,-11
1643363225420,1235.8416534,-11
1643363225420,1235.8416561,-11
1643363225420,1235.8416591,-2
1643363225420,1235.8416618,2
1643363225420,1235.8416645,-9
1643363225420,1235.8416671,-21
1643363225420,1235.8416699,-23
1643363225420,1236.2483336,-11
1643363225420,1236.2483446,2
1643363225466,1236.2483481,16
1643363225466,1236.2483509,23
1643363225466,1236.2483535,14
1643363225466,1236.2483561,-2
1643363225466,1236.2483587,-14
1643363225466,1236.2483612,-30
1643363225466,1236.2483638,-45
1643363225466,1236.2483664,-35
1643363225466,1236.248369,-30
1643363225466,1236.2483716,-35
1643363225511,1236.2483742,-26
1643363225511,1236.2483768,-21
1643363225511,1236.2483793,-28
1643363225511,1236.2483819,-19
1643363225511,1236.2483844,45
1643363225511,1236.248387,240
1643363225511,1236.2483896,617
1643363225511,1236.2483922,955
1643363225511,1236.2483947,781
1643363225511,1236.2483973,161
1643363225555,1236.2483998,-178
1643363225555,1236.2484024,-64
1643363225555,1236.248405,-11
1643363225555,1236.2484076,-99
1643363225555,1236.2484101,-87
1643363225555,1236.2484127,-59
1643363225555,1236.2484153,-80
1643363225555,1236.2484179,-71
1643363225555,1236.2484205,-49
1643363225555,1236.248423,-61
1643363225597,1236.2484256,-59
1643363225597,1236.2484282,-47
1643363225597,1236.2484307,-42
1643363225597,1236.2484333,-35
1643363225597,1236.248436,-19
1643363225597,1236.248439,-11
1643363225597,1236.2484416,-2
1643363225597,1236.2484442,11
1643363225597,1236.2484468,19
1643363225597,1236.2484494,35
1643363225641,1236.248452,54
1643363225641,1236.2484546,66
1643363225641,1236.2484572,83
1643363225641,1236.2484598,102
1643363225641,1236.2484624,109
1643363225641,1236.2484649,109
1643363225641,1236.2484675,111
1643363225641,1236.2484701,118
1643363225641,1236.2484732,116
1643363225641,1236.2484758,111
1643363225683,1236.2484784,104
1643363225683,1236.2484811,87
1643363225683,1236.2484837,61
1643363225683,1236.2484862,35
1643363225683,1236.2484888,14
1643363225683,1236.2484914,-2
1643363225683,1236.2484942,-16
1643363225683,1236.2484968,-26
1643363225683,1236.2484994,-28
1643363225683,1236.2485023,-26
1643363225732,1236.248505,-23
1643363225732,1236.2485076,-21
1643363225732,1236.2485102,-16
1643363225732,1236.2485128,-4
1643363226032,1236.2485154,0
1643363226032,1236.248518,-2
1643363226032,1236.2485206,2
1643363226032,1236.2485233,9
1643363226032,1236.2485259,4
1643363226032,1236.2485285,0
1643363226032,1236.2485311,4
1643363226032,1236.8470662,4
1643363226032,1236.8470785,2
1643363226032,1236.8470836,0
1643363226073,1236.8470885,0
1643363226073,1236.8470916,2
1643363226073,1236.8470946,-7
1643363226073,1236.8470993,-35
1643363226073,1236.8471041,-57
1643363226073,1236.8471089,-57
1643363226073,1236.8471124,-52
1643363226073,1236.8471154,-49
1643363226073,1236.8471182,-47
1643363226073,1236.8471211,-47
1643363226115,1236.8471238,-47
1643363226115,1236.8471267,-42
1643363226115,1236.8471295,-42
1643363226115,1236.8471323,-47
1643363226115,1236.8471352,-45
1643363226115,1236.847138,-45
1643363226115,1236.8471408,-47
1643363226115,1236.8471436,-49
1643363226115,1236.8471464,-45
1643363226115,1236.8471493,-35
1643363226161,1236.8471521,-14
1643363226161,1236.847155,0
1643363226161,1236.8471578,-4
1643363226161,1236.8471607,-23
1643363226161,1236.8471635,-40
1643363226161,1236.8471664,-38
1643363226161,1236.8471692,-30
1643363226161,1236.8471721,-28
1643363226161,1236.847175,-30
1643363226161,1236.8471778,-26
1643363226203,1236.8471806,-19
1643363226203,1236.8471847,-16
1643363226203,1236.8471876,-16
1643363226203,1236.8471906,2
1643363226203,1236.8471934,85
1643363226203,1236.8471963,304
1643363226203,1236.8471992,722
1643363226203,1236.847202,1069
1643363226203,1236.8472049,807
1643363226203,1236.8472077,109
1643363226248,1236.8472106,-182
1643363226248,1236.8472134,-19
1643363226248,1236.8472163,-4
1643363226248,1236.8472191,-109
1643363226248,1236.847222,-73
1643363226248,1236.8472249,-40
1643363226248,1236.8472297,-66
1643363226248,1236.8472325,-59
1643363226248,1236.8472354,-42
1643363226248,1236.8472382,-45
1643363226292,1236.8472411,-45
1643363226292,1236.8472439,-35
1643363226292,1236.8472467,-23
1643363226292,1236.8472495,-16
1643363226292,1236.8472523,-11
1643363226292,1236.8472552,-4
1643363226292,1236.847258,9
1643363226292,1236.847261,26
1643363226292,1236.8472638,38
1643363226292,1236.8472667,47
1643363226336,1236.8472694,57
1643363226336,1236.8472722,66
1643363226336,1236.8472751,80
1643363226336,1236.8472779,97
1643363226571,1236.8472807,109
1643363226571,1236.8472836,116
1643363226571,1236.8472863,118
1643363226571,1236.8472891,116
1643363226571,1236.8472918,111
1643363226571,1236.8472945,106
1643363226571,1237.3977644,99
1643363226571,1237.3977768,85
1643363226571,1237.3977801,61
1643363226571,1237.3977832,40
1643363226607,1237.3977871,19
1643363226607,1237.3977902,0
1643363226607,1237.3977949,-14
1643363226607,1237.3977978,-30
1643363226607,1237.3978016,-35
1643363226607,1237.3978045,-28
1643363226607,1237.3978092,-30
1643363226607,1237.397812,-45
1643363226607,1237.3978149,-54
1643363226607,1237.3978178,-47
1643363226655,1237.3978207,-38
1643363226655,1237.3978236,-33
1643363226655,1237.3978275,-23
1643363226655,1237.3978304,-23
1643363226655,1237.3978333,-33
1643363226655,1237.3978381,-35
1643363226655,1237.3978408,-33
1643363226655,1237.3978437,-33
1643363226655,1237.3978466,-33
1643363226655,1237.3978495,-30
1643363226699,1237.3978524,-35
1643363226699,1237.3978561,-38
1643363226699,1237.397859,-35
1643363226699,1237.3978619,-40
1643363226699,1237.3978647,-42
1643363226699,1237.3978675,-40
1643363226699,1237.3978704,-40
1643363226699,1237.3978733,-45
1643363226699,1237.3978762,-47
1643363226699,1237.3978791,-47
1643363226744,1237.397882,-42
1643363226744,1237.3978848,-38
1643363226744,1237.3978877,-35
1643363226744,1237.3978905,-33
1643363226744,1237.3978934,-28
1643363226744,1237.3978963,-33
1643363226744,1237.3979012,-40
1643363226744,1237.397905,-35
1643363226744,1237.3979088,-19
1643363226744,1237.3979117,-2
1643363226790,1237.3979146,9
1643363226790,1237.3979193,16
1643363226790,1237.3979231,14
1643363226790,1237.3979269,-2
1643363226790,1237.3979298,-16
1643363226790,1237.3979346,-21
1643363226790,1237.3979386,-21
1643363226790,1237.3979424,-19
1643363226790,1237.3979472,-11
1643363226790,1237.3979501,-4
1643363226836,1237.397953,-2
1643363226836,1237.3979558,0
1643363226836,1237.3979588,0
1643363226836,1237.3979634,11
1643363226836,1237.397967,76
1643363226836,1237.3979744,261
1643363226836,1237.3979773,629
1643363226836,1237.3979802,983
1643363226836,1237.3979831,845
1643363226836,1237.397986,225
1643363226880,1237.3979888,-161
1643363226880,1237.3979917,-59
1643363226880,1237.3979949,16
1643363226880,1237.3979976,-78
1643363227178,1237.3980003,-85
