unixTime,lslTime,ECG
1643479874346,34059.7103515,11
1643479874346,34059.7103547,-2
1643479874346,34059.7103575,-23
1643479874346,34059.7103604,-14
1643479874346,34059.7103633,2
1643479874346,34059.7103661,4
1643479874346,34059.7103691,0
1643479874346,34059.7103719,-2
1643479874346,34059.7103749,0
1643479874346,34059.7103778,7
1643479874379,34059.7103807,2
1643479874379,34059.7103837,-4
1643479874379,34059.7103866,7
1643479874379,34059.7103894,23
1643479874379,34059.7103923,4
1643479874379,34059.7103951,-11
1643479874379,34059.710398,4
1643479874379,34059.7104009,16
1643479874379,34059.7104037,16
1643479874379,34059.7104066,11
1643479874413,34059.7104094,16
1643479874413,34059.7104123,44
1643479874413,34059.7104153,54
1643479874413,34059.7104181,28
1643479874413,34059.7104211,21
1643479874413,34059.710424,23
1643479874413,34059.7104269,7
1643479874413,34059.7104298,2
1643479874413,34059.7104327,23
1643479874413,34059.7104356,56
1643479874446,34059.7104385,75
1643479874446,34059.7104414,66
1643479874446,34059.7104445,37
1643479874446,34059.7104477,26
1643479874446,34059.710453,35
1643479874446,34059.710456,37
1643479874446,34059.7104593,30
1643479874446,34059.7104623,28
1643479874446,34059.7104652,40
1643479874446,34059.7104683,56
1643479874479,34059.7104719,42
1643479874479,34059.7104767,78
1643479874479,34059.7104796,323
1643479874479,34059.7104827,713
1643479874479,34059.7104858,796
1643479874479,34059.7104912,283
1643479874479,34059.7104944,-193
1643479874479,34059.7104986,-80
1643479874479,34059.7105017,78
1643479874479,34059.7105068,-30
1643479874513,34059.71051,-59
1643479874513,34059.7105147,11
1643479874513,34059.7105177,18
1643479874513,34059.7105208,4
1643479874513,34059.7105248,9
1643479874513,34059.7105288,9
1643479874513,34059.7105318,11
1643479874513,34059.7105371,26
1643479874513,34059.7105425,26
1643479874513,34059.7105476,14
1643479874547,34059.7105508,37
1643479874547,34060.1635873,63
1643479874547,34060.1636013,56
1643479874547,34060.1636058,61
1643479874547,34060.1636114,78
1643479874547,34060.1636147,87
1643479874547,34060.163619,104
1643479874547,34060.1636234,111
1643479874547,34060.1636277,113
1643479874547,34060.1636372,125
1643479874580,34060.1636405,115
1643479874580,34060.163646,115
1643479874580,34060.1636492,139
1643479874580,34060.1636525,122
1643479874978,34060.1636568,87
1643479874978,34060.1636599,66
1643479874978,34060.1636629,37
1643479874978,34060.1636659,11
1643479874978,34060.163669,-2
1643479874978,34060.1636719,-26
1643479874978,34060.1636749,-63
1643479874978,34060.1636778,-68
1643479874978,34060.1636808,-44
1643479874978,34060.1636838,-52
1643479875012,34060.1636867,-63
1643479875012,34060.1636901,-47
1643479875012,34060.163693,-44
1643479875012,34060.1636959,-54
1643479875012,34060.1636988,-47
1643479875012,34060.1637019,-42
1643479875012,34060.1637075,-42
1643479875012,34060.1637108,-42
1643479875012,34060.1637148,-30
1643479875012,34060.1637179,-7
1643479875045,34060.1637229,-11
1643479875045,34060.1637261,-26
1643479875045,34060.1637311,-11
1643479875045,34060.1637341,11
1643479875045,34060.1637373,14
1643479875045,34060.1637422,4
1643479875045,34060.1637456,-2
1643479875045,34060.1637487,0
1643479875045,34060.1637535,9
1643479875045,34060.1637584,16
1643479875080,34060.1637632,18
1643479875080,34060.1637664,14
1643479875080,34060.1637713,14
1643479875080,34060.1637744,16
1643479875080,34060.1637793,14
1643479875080,34060.1637824,11
1643479875080,34060.1637874,11
1643479875080,34060.1637911,2
1643479875080,34060.163796,2
1643479875080,34060.1637991,14
1643479875112,34060.1638041,11
1643479875112,34060.1638086,2
1643479875112,34060.1638134,9
1643479875112,34060.1638165,33
1643479875112,34060.1638196,44
1643479875112,34060.1638246,37
1643479875112,34060.1638293,30
1643479875112,34060.1638343,23
1643479875112,34060.1638375,16
1643479875112,34060.1638424,14
1643479875149,34060.1638463,16
1643479875149,34060.1638513,14
1643479875149,34060.1638551,14
1643479875149,34060.1638604,23
1643479875149,34060.1638637,18
1643479875149,34060.1638688,0
1643479875149,34060.163872,63
1643479875149,34060.1638769,345
1643479875149,34060.16388,744
1643479875149,34060.1638849,756
1643479875178,34060.8130209,165
1643479875178,34060.8130343,-245
1643479875178,34060.8130391,-52
1643479875178,34060.8130442,73
1643479875178,34060.8130474,-47
1643479875178,34060.8130525,-47
1643479875178,34060.8130554,2
1643479875178,34060.8130585,-16
1643479875178,34060.8130617,-21
1643479875178,34060.8130672,-7
1643479875214,34060.8130703,-14
1643479875214,34060.8130737,-30
1643479875214,34060.8130776,-35
1643479875214,34060.8130807,-23
1643479875458,34060.8130848,-9
1643479875458,34060.8130878,0
1643479875458,34060.8130908,7
1643479875458,34060.8130936,21
1643479875458,34060.8130964,33
1643479875458,34060.8130993,40
1643479875458,34060.8131021,49
1643479875458,34060.8131048,61
1643479875458,34060.8131076,73
1643479875458,34060.8131105,78
1643479875479,34060.8131135,82
1643479875479,34060.8131163,89
1643479875479,34060.8131191,99
1643479875479,34060.8131219,106
1643479875479,34060.8131248,87
1643479875479,34060.8131276,52
1643479875479,34060.8131304,16
1643479875479,34060.8131333,-16
1643479875479,34060.8131372,-35
1643479875479,34060.8131402,-26
1643479875513,34060.8131443,-26
1643479875513,34060.8131473,-44
1643479875513,34060.8131512,-54
1643479875513,34060.8131542,-56
1643479875513,34060.8131577,-52
1643479875513,34060.8131606,-37
1643479875513,34060.8131637,-35
1643479875513,34060.8131687,-42
1643479875513,34060.8131716,-37
1643479875513,34060.8131745,-23
1643479875546,34060.8131776,-16
1643479875546,34060.8131817,-16
1643479875546,34060.8131847,-9
1643479875546,34060.8131877,2
1643479875546,34060.8131918,7
1643479875546,34060.8131948,14
1643479875546,34060.8131977,21
1643479875546,34060.8132007,28
1643479875546,34060.8132046,33
1643479875546,34060.8132076,35
1643479875581,34060.8132117,30
1643479875581,34060.8132146,14
1643479875581,34060.8132186,4
1643479875581,34060.8132216,14
1643479875581,34060.8132246,23
1643479875581,34060.8132295,23
1643479875581,34060.8132341,11
1643479875581,34060.8132382,-7
1643479875581,34060.8132412,-4
1643479875581,34060.8132451,35
1643479875612,34060.813248,59
1643479875612,34060.8132529,28
1643479875612,34060.8132575,21
1643479875612,34060.8132623,37
1643479875612,34060.8132669,23
1643479875612,34060.8132709,0
1643479875612,34060.813274,7
1643479875612,34060.8132779,26
1643479875612,34060.8132809,23
1643479875612,34061.2652535,16
1643479875645,34061.2652665,37
1643479875645,34061.2652717,61
1643479875645,34061.2652771,70
1643479875645,34061.2652818,66
1643479875645,34061.265287,40
1643479875645,34061.2652909,21
1643479875645,34061.2652961,30
1643479875645,34061.2652993,40
1643479875645,34061.2653045,28
1643479875645,34061.265309,14
1643479875693,34061.265314,14
1643479875693,34061.2653186,33
1643479875693,34061.2653235,40
1643479875693,34061.2653267,54
1643479876047,34061.2653318,252
1643479876047,34061.265335,664
1643479876047,34061.2653381,841
1643479876047,34061.2653412,352
1643479876047,34061.2653442,-210
1643479876047,34061.2653472,-118
1643479876047,34061.2653503,94
1643479876047,34061.2653533,-28
1643479876047,34061.2653564,-101
1643479876047,34061.2653594,-33
1643479876082,34061.2653625,-33
1643479876082,34061.2653656,-66
1643479876082,34061.2653686,-66
1643479876082,34061.2653717,-52
1643479876082,34061.2653747,-7
1643479876082,34061.2653777,30
1643479876082,34061.2653811,2
1643479876082,34061.2653843,-16
1643479876082,34061.2653902,4
1643479876082,34061.2653936,2
1643479876112,34061.2653987,-9
1643479876112,34061.265402,2
1643479876112,34061.2654073,18
1643479876112,34061.2654106,52
1643479876112,34061.2654157,96
1643479876112,34061.2654191,92
1643479876112,34061.265424,73
1643479876112,34061.2654281,87
1643479876112,34061.2654333,101
1643479876112,34061.265438,94
1643479876147,34061.2654431,82
1643479876147,34061.2654465,75
1643479876147,34061.2654514,73
1643479876147,34061.2654553,56
1643479876147,34061.2654604,21
1643479876147,34061.2654639,-4
1643479876147,34061.2654689,-14
1643479876147,34061.2654723,-30
1643479876147,34061.2654773,-56
1643479876147,34061.2654806,-66
1643479876183,34061.2654857,-33
1643479876183,34061.2654891,-11
1643479876183,34061.2654941,-33
1643479876183,34061.2654974,-33
1643479876183,34061.2655027,-18
1643479876183,34061.2655059,-14
1643479876183,34061.2655109,-18
1643479876183,34061.2655149,-30
1643479876183,34061.2655198,-16
1643479876183,34061.2655232,7
1643479876212,34061.2655287,7
1643479876212,34061.2655324,18
1643479876212,34061.2655399,33
1643479876212,34061.2655437,7
1643479876212,34061.2655494,0
1643479876212,34061.2655537,26
1643479876212,34061.2655569,26
1643479876212,34061.2655604,11
1643479876212,34061.8600421,18
1643479876212,34061.8600547,30
1643479876246,34061.8600584,18
1643479876246,34061.8600616,4
1643479876246,34061.8600659,11
1643479876246,34061.8600689,16
1643479876246,34061.8600739,11
1643479876246,34061.860077,7
1643479876246,34061.8600819,-11
1643479876246,34061.860085,-23
1643479876246,34061.8600898,-9
1643479876246,34061.8600926,-4
1643479876282,34061.8600956,-18
1643479876282,34061.8600986,-18
1643479876282,34061.8601015,-4
1643479876282,34061.8601046,2
1643479876747,34061.8601075,-4
1643479876747,34061.8601108,-2
1643479876747,34061.8601137,0
1643479876747,34061.8601165,0
1643479876747,34061.8601193,4
1643479876747,34061.860122,26
1643479876747,34061.8601248,44
1643479876747,34061.8601277,47
1643479876747,34061.8601304,40
1643479876747,34061.8601332,16
1643479876783,34061.8601361,-4
1643479876783,34061.8601389,-7
1643479876783,34061.8601416,2
1643479876783,34061.8601444,9
1643479876783,34061.8601471,9
1643479876783,34061.8601499,7
1643479876783,34061.8601527,-2
1643479876783,34061.8601557,-7
1643479876783,34061.8601586,66
1643479876783,34061.8601615,326
1643479876813,34061.8601645,697
1643479876813,34061.8601675,721
1643479876813,34061.8601705,165
1643479876813,34061.8601735,-241
1643479876813,34061.8601776,-54
1643479876813,34061.8601805,68
1643479876813,34061.8601835,-66
1643479876813,34061.8601876,-73
1643479876813,34061.8601906,-9
1643479876813,34061.8601956,-33
1643479876847,34061.8601985,-44
1643479876847,34061.8602014,-23
1643479876847,34061.8602044,-23
1643479876847,34061.8602073,-21
1643479876847,34061.8602103,-4
1643479876847,34061.8602154,2
1643479876847,34061.8602195,4
1643479876847,34061.8602225,16
1643479876847,34061.8602255,23
1643479876847,34061.8602289,23
1643479876879,34061.860232,35
1643479876879,34061.8602359,56
1643479876879,34061.8602388,63
1643479876879,34061.8602428,63
1643479876879,34061.8602457,75
1643479876879,34061.8602487,89
1643479876879,34061.8602517,92
1643479876879,34061.8602546,94
1643479876879,34061.8602576,104
1643479876879,34061.8602606,108
1643479876914,34061.8602646,92
1643479876914,34061.8602675,73
1643479876914,34061.8602705,56
1643479876914,34061.8602735,33
1643479876914,34061.8602764,9
1643479876914,34061.8602794,-2
1643479876914,34061.8602844,-4
1643479876914,34062.5621454,-9
1643479876914,34062.5621572,-16
1643479876914,34062.5621622,-23
1643479876950,34062.5621675,-33
1643479876950,34062.5621709,-28
1643479876950,34062.5621759,-21
1643479876950,34062.5621798,-30
1643479876950,34062.5621848,-35
1643479876950,34062.5621881,-26
1643479876950,34062.5621932,-21
1643479876950,34062.5621966,-21
1643479876950,34062.5622015,-11
1643479876950,34062.5622051,-11
1643479876979,34062.5622101,-21
1643479876979,34062.5622135,-18
1643479876979,34062.5622184,-9
1643479876979,34062.5622223,-4
1643479877146,34062.5622277,-7
1643479877146,34062.5622309,-14
1643479877146,34062.5622339,-11
1643479877146,34062.5622374,-11
1643479877146,34062.5622404,-18
1643479877146,34062.5622435,-18
1643479877146,34062.5622465,-21
1643479877146,34062.5622496,-21
1643479877146,34062.5622526,-16
1643479877146,34062.5622557,-18
1643479877179,34062.5622587,-16
1643479877179,34062.5622617,-9
1643479877179,34062.5622648,-2
1643479877179,34062.5622679,2
1643479877179,34062.5622712,7
1643479877179,34062.5622763,11
1643479877179,34062.5622812,11
1643479877179,34062.562286,2
1643479877179,34062.5622893,-4
1643479877179,34062.5622943,2
1643479877213,34062.5622976,9
1643479877213,34062.5623008,11
1643479877213,34062.5623057,7
1643479877213,34062.5623106,2
1643479877213,34062.5623155,4
1643479877213,34062.5623197,21
1643479877213,34062.5623246,42
1643479877213,34062.5623285,52
1643479877213,34062.5623333,47
1643479877213,34062.5623365,33
1643479877246,34062.5623414,18
1643479877246,34062.562345,26
1643479877246,34062.56235,30
1643479877246,34062.5623538,14
1643479877246,34062.5623587,-4
1643479877246,34062.5623624,4
1643479877246,34062.5623673,21
1643479877246,34062.5623705,11
1643479877246,34062.5623754,9
1643479877246,34062.5623801,141
1643479877280,34062.5623852,456
1643479877280,34062.562389,706
1643479877280,34062.562394,460
1643479877280,34062.562398,-68
1643479877280,34062.5624029,-165
1643479877280,34062.562406,11
1643479877280,34062.5624113,-14
1643479877280,34062.5624145,-73
1643479877280,34062.5624194,-33
1643479877280,34062.5624226,-23
1643479877312,34062.5624276,-30
1643479877312,34062.5624307,-9
1643479877312,34062.5624356,-4
1643479877312,34062.5624388,-21
1643479877312,34062.5624438,-37
1643479877312,34062.5624485,-47
1643479877312,34062.9636204,-28
1643479877312,34062.963633,0
1643479877312,34062.9636382,7
1643479877312,34062.9636432,16
1643479877346,34062.9636463,35
1643479877346,34062.9636494,35
1643479877346,34062.9636533,44
1643479877346,34062.9636563,75
1643479877346,34062.9636603,89
1643479877346,34062.9636634,75
1643479877346,34062.9636709,54
1643479877346,34062.9636741,49
1643479877346,34062.9636772,44
1643479877346,34062.9636815,49
1643479877380,34062.9636843,66
1643479877380,34062.9636872,56
1643479877380,34062.9636901,30
1643479877380,34062.9636929,18
1643479877679,34062.9636957,4
1643479877679,34062.9636986,-18
1643479877679,34062.9637016,-49
1643479877679,34062.9637044,-73
1643479877679,34062.9637072,-61
1643479877679,34062.96371,-52
1643479877679,34062.9637128,-61
1643479877679,34062.9637159,-63
1643479877679,34062.9637189,-61
1643479877679,34062.9637217,-61
1643479877712,34062.9637245,-52
1643479877712,34062.9637273,-37
1643479877712,34062.9637301,-40
1643479877712,34062.963733,-52
1643479877712,34062.9637358,-56
1643479877712,34062.9637388,-28
1643479877712,34062.9637418,-4
1643479877712,34062.9637447,-26
1643479877712,34062.9637482,-37
1643479877712,34062.9637511,-11
1643479877746,34062.963754,9
1643479877746,34062.9637576,4
1643479877746,34062.9637604,-21
1643479877746,34062.9637632,-16
1643479877746,34062.9637661,35
1643479877746,34062.9637689,52
1643479877746,34062.9637718,-18
1643479877746,34062.9637746,-78
1643479877746,34062.9637775,-44
1643479877746,34062.9637803,-9
1643479877779,34062.9637832,-16
1643479877779,34062.963786,-4
1643479877779,34062.9637889,21
1643479877779,34062.9637918,23
1643479877779,34062.9637947,4
1643479877779,34062.9637978,-16
1643479877779,34062.9638009,-16
1643479877779,34062.963804,2
1643479877779,34062.9638084,7
1643479877779,34062.9638118,2
1643479877812,34062.9638172,9
1643479877812,34062.9638201,11
1643479877812,34062.9638231,4
1643479877812,34062.963827,14
1643479877812,34062.9638301,30
1643479877812,34062.9638349,30
1643479877812,34062.9638398,30
1643479877812,34062.9638448,26
1643479877812,34062.9638476,16
1643479877812,34062.9638507,11
1643479877846,34062.9638537,9
1643479877846,34062.9638578,9
1643479877846,34062.9638608,21
1643479877846,34062.9638657,30
1643479877846,34062.9638686,28
1643479877846,34063.5143514,18
1643479877846,34063.5143642,9
1643479877846,34063.5143679,89
1643479877846,34063.514371,375
1643479877846,34063.5143748,751
1643479877880,34063.5143776,718
1643479877880,34063.5143805,125
1643479877880,34063.5143834,-245
1643479877880,34063.5143863,-47
1643479877880,34063.5143892,61
1643479877880,34063.514392,-68
1643479877880,34063.5143949,-78
1643479877880,34063.5143978,-18
1643479877880,34063.5144006,-42
1643479877880,34063.514404,-59
1643479877913,34063.514407,-37
1643479877913,34063.5144099,-28
1643479877913,34063.5144129,-33
1643479877913,34063.5144158,-33
1643479878246,34063.5144194,-23
1643479878246,34063.5144223,-9
1643479878246,34063.5144259,4
1643479878246,34063.5144289,16
1643479878246,34063.5144319,23
1643479878246,34063.5145067,28
1643479878246,34063.5145268,44
1643479878246,34063.5145323,54
1643479878246,34063.5145357,54
1643479878246,34063.5145388,70
1643479878279,34063.5145417,96
1643479878279,34063.5145446,104
1643479878279,34063.5145475,94
1643479878279,34063.5145504,96
1643479878279,34063.5145533,101
1643479878279,34063.5145562,85
1643479878279,34063.5145591,61
1643479878279,34063.5145621,40
1643479878279,34063.514565,14
1643479878279,34063.5145691,-7
1643479878313,34063.514572,-18
1643479878313,34063.5145749,-35
1643479878313,34063.5145778,-52
1643479878313,34063.5145897,-54
1643479878313,34063.5145949,-54
1643479878313,34063.514598,-63
1643479878313,34063.5146009,-61
1643479878313,34063.5146038,-56
1643479878313,34063.5146068,-59
1643479878313,34063.5146096,-56
1643479878345,34063.5146129,-42
1643479878345,34063.5146161,-37
1643479878345,34063.514619,-40
1643479878345,34063.514622,-30
1643479878345,34063.5146248,-18
1643479878345,34063.5146284,-18
1643479878345,34063.5146313,-18
1643479878345,34063.5146342,-9
1643479878345,34063.5146372,0
1643479878345,34063.51464,4
1643479878368,34063.5146429,4
1643479878368,34063.5146458,4
1643479878368,34063.5146487,0
1643479878368,34063.5146516,-2
1643479878368,34063.5146545,0
1643479878368,34063.5146574,2
1643479878368,34063.5146603,9
1643479878368,34063.5146718,11
1643479878368,34063.5147008,11
1643479878368,34063.5147049,7
1643479878389,34063.5147079,2
1643479878389,34063.5147108,0
1643479878389,34063.5147137,4
1643479878389,34063.5147166,0
1643479878389,34064.0635611,-7
1643479878389,34064.0635735,0
1643479878389,34064.0635793,18
1643479878389,34064.0635845,30
1643479878389,34064.0635879,35
1643479878389,34064.0635928,26
1643479878413,34064.0635968,9
1643479878413,34064.0636017,-2
1643479878413,34064.0636057,-18
1643479878413,34064.0636107,-42
1643479878413,34064.0636145,-44
1643479878413,34064.0636198,-33
1643479878413,34064.0636239,-35
1643479878413,34064.0636288,-33
1643479878413,34064.0636321,-35
1643479878413,34064.0636371,-23
1643479878434,34064.0636403,144
1643479878434,34064.0636453,529
1643479878434,34064.0636492,791
1643479878434,34064.0636542,423
1643479878800,34064.0636583,-193
1643479878800,34064.0636614,-205
1643479878800,34064.0636644,47
1643479878800,34064.0636674,-23
1643479878800,34064.063673,-106
1643479878800,34064.0636761,-30
1643479878800,34064.0636791,-18
1643479878800,34064.0636821,-54
1643479878800,34064.0636851,-33
1643479878800,34064.0636882,-11
1643479878833,34064.0636912,-28
1643479878833,34064.0636942,-33
1643479878833,34064.0636972,-18
1643479878833,34064.0637003,-16
1643479878833,34064.0637033,-11
1643479878833,34064.0637071,0
1643479878833,34064.0637104,7
1643479878833,34064.0637146,21
1643479878833,34064.0637198,40
1643479878833,34064.063723,52
1643479878866,34064.063728,54
1643479878866,34064.0637311,68
1643479878866,34064.0637343,87
1643479878866,34064.0637392,96
1643479878866,34064.0637442,104
1643479878866,34064.063749,106
1643479878866,34064.0637524,99
1643479878866,34064.0637572,92
1643479878866,34064.0637605,80
1643479878866,34064.0637638,68
1643479878901,34064.0637687,30
1643479878901,34064.0637741,-11
1643479878901,34064.0637789,-14
1643479878901,34064.0637826,-11
1643479878901,34064.0637878,-40
1643479878901,34064.0637914,-52
1643479878901,34064.0637962,-30
1643479878901,34064.0637993,-26
1643479878901,34064.0638025,-33
1643479878901,34064.0638076,-30
1643479878934,34064.0638119,-35
1643479878934,34064.0638171,-30
1643479878934,34064.0638204,-18
1643479878934,34064.0638252,-28
1643479878934,34064.0638285,-28
1643479878934,34064.0638332,-16
1643479878934,34064.0638364,-16
1643479878934,34064.0638422,-18
1643479878934,34064.0638454,-2
1643479878934,34064.0638503,11
1643479878967,34064.0638536,7
1643479878967,34064.0638584,0
1643479878967,34064.0638616,4
1643479878967,34064.6138964,7
1643479878967,34064.6139076,7
1643479878967,34064.6139112,7
1643479878967,34064.6139153,9
1643479878967,34064.6139184,11
1643479878967,34064.6139223,4
1643479878967,34064.6139255,-11
1643479879001,34064.6139293,-28
1643479879001,34064.6139324,-33
1643479879001,34064.6139355,-26
1643479879001,34064.6139396,-23
1643479879001,34064.6139426,-30
1643479879001,34064.6139466,-28
1643479879001,34064.6139496,-23
1643479879001,34064.6139534,-16
1643479879001,34064.6139563,-4
1643479879001,34064.6139593,-7
1643479879035,34064.6139632,-16
1643479879035,34064.6139663,4
1643479879035,34064.6139703,30
1643479879035,34064.6139735,37
1643479879402,34064.6139774,33
1643479879402,34064.6139804,18
1643479879402,34064.6139832,0
1643479879402,34064.6139863,2
1643479879402,34064.6139892,9
1643479879402,34064.613992,-4
1643479879402,34064.6139948,-7
1643479879402,34064.6139977,7
1643479879402,34064.6140005,11
1643479879402,34064.6140034,4
1643479879434,34064.6140062,-11
1643479879434,34064.6140091,40
1643479879434,34064.614012,309
1643479879434,34064.6140148,737
1643479879434,34064.6140178,841
1643479879434,34064.6140206,281
1643479879434,34064.6140235,-236
1643479879434,34064.6140264,-85
1643479879434,34064.6140293,106
1643479879434,34064.6140321,-26
1643479879467,34064.614035,-70
1643479879467,34064.6140379,2
1643479879467,34064.6140407,7
1643479879467,34064.6140436,16
1643479879467,34064.6140466,35
1643479879467,34064.6140497,4
1643479879467,34064.6140538,-9
1643479879467,34064.6140568,18
1643479879467,34064.6140607,26
1643479879467,34064.6140637,11
1643479879500,34064.6140667,21
1643479879500,34064.6140706,44
1643479879500,34064.6140746,35
1643479879500,34064.6140777,33
1643479879500,34064.6140819,52
1643479879500,34064.6140849,54
1643479879500,34064.6140888,54
1643479879500,34064.6140918,78
1643479879500,34064.6140958,115
1643479879500,34064.6140988,130
1643479879533,34064.6141029,111
1643479879533,34064.6141059,115
1643479879533,34064.6141102,132
1643479879533,34064.6141134,104
1643479879533,34064.6141172,85
1643479879533,34064.6141203,85
1643479879533,34064.6141242,52
1643479879533,34064.6141272,11
1643479879533,34064.6141313,9
1643479879533,34064.6141343,9
1643479879569,34064.6141383,-16
1643479879569,34064.6141413,-23
1643479879569,34065.2143235,-9
1643479879569,34065.2143369,-9
1643479879569,34065.2143429,-9
1643479879569,34065.2143485,-7
1643479879569,34065.2143518,-9
1643479879569,34065.214357,-18
1643479879569,34065.2143603,-28
1643479879569,34065.2143657,-23
1643479879600,34065.2143689,-11
1643479879600,34065.214374,-16
1643479879600,34065.2143773,-9
1643479879600,34065.2143825,11
1643479879600,34065.2143859,0
1643479879600,34065.2143911,-26
1643479879600,34065.2143943,-16
1643479879600,34065.2143994,2
1643479879600,34065.2144026,2
1643479879600,34065.2144076,0
1643479879634,34065.2144109,-2
1643479879634,34065.2144159,-9
1643479879634,34065.2144193,-4
1643479879634,34065.2144243,2
1643479880001,34065.2144275,0
1643479880001,34065.2144307,0
1643479880001,34065.2144337,4
1643479880001,34065.2144367,9
1643479880001,34065.2144397,11
1643479880001,34065.2144427,0
1643479880001,34065.2144458,-11
1643479880001,34065.2144488,2
1643479880001,34065.2144518,16
1643479880001,34065.2144549,7
1643479880036,34065.2144579,0
1643479880036,34065.2144609,4
1643479880036,34065.2144639,18
1643479880036,34065.2144673,42
1643479880036,34065.2144703,49
1643479880036,34065.2144732,40
1643479880036,34065.2144763,37
1643479880036,34065.2144793,28
1643479880036,34065.2144824,11
1643479880036,34065.2144854,9
1643479880067,34065.2144884,23
1643479880067,34065.2144914,28
1643479880067,34065.2144943,21
1643479880067,34065.2144975,18
1643479880067,34065.2145007,14
1643479880067,34065.214505,-16
1643479880067,34065.2145104,9
1643479880067,34065.2145136,248
1643479880067,34065.2145188,654
1643479880067,34065.214522,782
1643479880102,34065.2145274,288
1643479880102,34065.2145307,-203
1643479880102,34065.214536,-89
1643479880102,34065.2145395,75
1643479880102,34065.2145446,-37
1643479880102,34065.2145479,-63
1643479880102,34065.2145531,2
1643479880102,34065.2145565,-16
1643479880102,34065.2145617,-35
1643479880102,34065.2145649,-4
1643479880134,34065.2145702,-2
1643479880134,34065.2145737,-16
1643479880134,34065.2145791,-7
1643479880134,34065.2145824,2
1643479880134,34065.2145892,2
1643479880134,34065.2145926,9
1643479880134,34065.2145977,21
1643479880134,34065.2146011,23
1643479880134,34065.2146063,23
1643479880134,34065.2146095,33
1643479880168,34065.2146149,52
1643479880168,34065.8125182,66
1643479880168,34065.8125517,70
1643479880168,34065.8125654,78
1643479880168,34065.812582,94
1643479880168,34065.8125866,113
1643479880168,34065.8125899,122
1643479880168,34065.812593,118
1643479880168,34065.8125961,118
1643479880168,34065.8125993,92
1643479880203,34065.8126023,21
1643479880203,34065.8126055,-16
1643479880203,34065.8126085,-4
1643479880203,34065.8126117,-4
1643479880203,34065.8126146,-49
1643479880203,34065.8126175,-104
1643479880203,34065.8126204,-92
1643479880203,34065.8126234,-54
1643479880203,34065.8126265,-61
1643479880203,34065.8126519,-66
1643479880249,34065.8126587,-61
1643479880249,34065.8126618,-75
1643479880249,34065.8126646,-73
1643479880249,34065.8126677,-47
1643479880533,34065.8126708,-28
1643479880533,34065.8126738,-18
1643479880533,34065.8126767,-26
1643479880533,34065.8126795,-59
1643479880533,34065.8126824,-73
1643479880533,34065.8126853,-11
1643479880533,34065.8126882,56
1643479880533,34065.812691,42
1643479880533,34065.8126939,4
1643479880533,34065.8126968,-16
1643479880567,34065.8126996,-30
1643479880567,34065.8127024,-18
1643479880567,34065.8127054,4
1643479880567,34065.8127083,4
1643479880567,34065.8127111,7
1643479880567,34065.812714,37
1643479880567,34065.8127169,23
1643479880567,34065.8127197,-37
1643479880567,34065.8127226,-52
1643479880567,34065.8127284,-26
1643479880600,34065.8127316,-21
1643479880600,34065.8127578,-26
1643479880600,34065.8127654,-9
1643479880600,34065.8127691,0
1643479880600,34065.8127723,-33
1643479880600,34065.8127753,-78
1643479880600,34065.8127782,-61
1643479880600,34065.8127813,11
1643479880600,34065.8128107,42
1643479880600,34065.8128179,23
1643479880633,34065.8128216,-9
1643479880633,34065.8128246,-33
1643479880633,34065.8128276,18
1643479880633,34065.8128304,99
1643479880633,34065.8128334,75
1643479880633,34065.8128363,-2
1643479880633,34065.8128392,-16
1643479880633,34065.8128422,0
1643479880633,34065.8128452,-18
1643479880633,34065.812848,-9
1643479880666,34065.812851,42
1643479880666,34065.8128539,23
1643479880666,34065.8128569,-33
1643479880666,34065.81286,37
1643479880666,34065.8128629,238
1643479880666,34065.8128658,541
1643479880666,34065.8128687,803
1643479880666,34065.8128717,510
1643479880666,34065.8128747,-141
1643479880666,34065.8128776,-203
1643479880700,34066.3593312,75
1643479880700,34066.3593445,-30
1643479880700,34066.3593496,-144
1643479880700,34066.3593552,7
1643479880700,34066.3593587,40
1643479880700,34066.3593643,-26
1643479880700,34066.3593676,-14
1643479880700,34066.3593727,-14
1643479880700,34066.359376,-11
1643479880700,34066.359381,16
1643479880734,34066.3593844,40
1643479880734,34066.3593894,52
1643479880734,34066.3593928,44
1643479880734,34066.3593979,33
1643479880734,34066.3594012,40
1643479880734,34066.3594063,30
1643479880734,34066.3594097,9
1643479880734,34066.359415,52
1643479880734,34066.3594189,101
1643479880734,34066.3594242,68
1643479880766,34066.3594273,30
1643479880766,34066.3594306,70
1643479880766,34066.3594368,160
1643479880766,34066.3594402,210
1643479881123,34066.3594457,170
1643479881123,34066.359449,82
1643479881123,34066.359452,33
1643479881123,34066.3594551,54
1643479881123,34066.3594582,70
1643479881123,34066.3594612,18
1643479881123,34066.3594643,-11
1643479881123,34066.3594674,-47
1643479881123,34066.3594703,-111
1643479881123,34066.3594733,-68
1643479881147,34066.3594769,14
1643479881147,34066.3594799,-30
1643479881147,34066.3594829,-130
1643479881147,34066.3594861,-118
1643479881147,34066.3594892,-47
1643479881147,34066.3594922,-44
1643479881147,34066.3594952,-42
1643479881147,34066.3594982,-28
1643479881147,34066.3595012,-42
1643479881147,34066.3595042,-56
1643479881169,34066.3595075,-73
1643479881169,34066.3595117,-28
1643479881169,34066.3595172,61
1643479881169,34066.3595206,16
1643479881169,34066.3595259,-35
1643479881169,34066.3595292,73
1643479881169,34066.3595344,73
1643479881169,34066.3595377,-42
1643479881169,34066.3595428,40
1643479881169,34066.3595461,80
1643479881190,34066.3595511,-33
1643479881190,34066.3595544,-23
1643479881190,34066.3595586,14
1643479881190,34066.3595619,-2
1643479881190,34066.3595667,82
1643479881190,34066.3595699,125
1643479881190,34066.3595749,9
1643479881190,34066.3595782,-21
1643479881190,34066.3595815,21
1643479881190,34066.3595866,37
1643479881214,34066.3595898,127
1643479881214,34066.3595948,96
1643479881214,34066.3595996,-80
1643479881214,34066.3596046,-42
1643479881214,34066.3596093,144
1643479881214,34066.3596144,160
1643479881214,34066.3596181,66
1643479881214,34066.359623,14
1643479881214,34066.3596263,-11
1643479881214,34066.9644919,54
1643479881233,34066.9645045,111
1643479881233,34066.9645085,-2
1643479881233,34066.9645117,14
1643479881233,34066.9645148,380
1643479881233,34066.9645183,865
1643479881233,34066.9645214,978
1643479881233,34066.9645245,345
1643479881233,34066.9645276,-293
1643479881233,34066.9645308,-184
1643479881233,34066.9645338,-28
1643479881256,34066.9645368,-73
1643479881256,34066.9645399,104
1643479881256,34066.964543,144
1643479881256,34066.9645461,-42
1643479881256,34066.9645492,-54
1643479881256,34066.9645523,-7
1643479881256,34066.9645553,-23
1643479881256,34066.964559,59
1643479881256,34066.9645621,61
1643479881256,34066.9645651,-70
1643479881281,34066.9645681,-21
1643479881281,34066.9645712,92
1643479881281,34066.9645742,82
1643479881281,34066.9645773,130
1643479881700,34066.9645804,163
1643479881700,34066.9645834,9
1643479881700,34066.9645865,-80
1643479881700,34066.9645895,101
1643479881700,34066.9645927,264
1643479881700,34066.9645958,210
1643479881700,34066.9645988,151
1643479881700,34066.9646018,137
1643479881700,34066.9646048,49
1643479881700,34066.9646078,63
1643479881733,34066.9646108,200
1643479881733,34066.9646142,196
1643479881733,34066.9646172,73
1643479881733,34066.9646206,-52
1643479881733,34066.9646237,-137
1643479881733,34066.9646268,-54
1643479881733,34066.9646298,47
1643479881733,34066.9646328,-56
1643479881733,34066.9646359,-210
1643479881733,34066.9646391,-177
1643479881767,34066.9646422,-35
1643479881767,34066.9646452,-4
1643479881767,34066.9646483,-122
1643479881767,34066.9646513,-217
1643479881767,34066.9646543,-104
1643479881767,34066.9646574,30
1643479881767,34066.9646604,-118
1643479881767,34066.9646635,-245
1643479881767,34066.9646665,-134
1643479881767,34066.9646696,-70
1643479881800,34066.9646727,-54
1643479881800,34066.9646758,-23
1643479881800,34066.9646788,-47
1643479881800,34066.9646819,-26
1643479881800,34066.9646849,-47
1643479881800,34066.964688,-174
1643479881800,34066.964691,-137
1643479881800,34066.9646941,-47
1643479881800,34066.9646972,-11
1643479881800,34066.9647003,139
1643479881834,34066.9647034,92
1643479881834,34066.9647065,-160
1643479881834,34066.9647095,-160
1643479881834,34066.9647126,11
1643479881834,34066.9647157,30
1643479881834,34066.9647188,-73
1643479881834,34066.964722,-26
1643479881834,34066.9647251,30
1643479881834,34067.5114001,-30
1643479881834,34067.5114935,30
1643479881867,34067.5115024,40
1643479881867,34067.5115061,-96
1643479881867,34067.5115093,-11
1643479881867,34067.5115122,153
1643479881867,34067.5115152,7
1643479881867,34067.511518,-127
1643479881867,34067.5115209,-7
1643479881867,34067.5115242,26
1643479881867,34067.5115274,33
1643479881867,34067.5115454,170
1643479881906,34067.51155,312
1643479881906,34067.5115529,560
1643479881906,34067.5115557,718
1643479881906,34067.5115586,333
1643479881906,34067.5115615,-134
1643479881906,34067.5115643,-130
1643479881906,34067.5115672,-61
1643479881906,34067.51157,-115
1643479881906,34067.5115729,-7
1643479881906,34067.5115758,111
1643479881934,34067.5115831,-56
1643479881934,34067.5115971,-191
1643479881934,34067.511602,28
1643479881934,34067.5116061,101
1643479882234,34067.5116089,-111
1643479882234,34067.5116117,-78
1643479882234,34067.5116156,130
1643479882234,34067.5116185,104
1643479882234,34067.5116224,-44
1643479882234,34067.5116262,-89
1643479882234,34067.5116291,-52
1643479882234,34067.5116319,94
1643479882234,34067.5116348,210
1643479882234,34067.5116377,85
1643479882271,34067.5116405,-63
1643479882271,34067.5116434,18
1643479882271,34067.5116462,191
1643479882271,34067.511649,238
1643479882271,34067.5116519,115
1643479882271,34067.5116547,-18
1643479882271,34067.5116576,89
1643479882271,34067.5116604,151
1643479882271,34067.5116633,-111
1643479882271,34067.5116662,-167
1643479882302,34067.511669,28
1643479882302,34067.5116719,37
1643479882302,34067.5116747,9
1643479882302,34067.5116775,7
1643479882302,34067.5116803,-2
1643479882302,34067.5116832,94
1643479882302,34067.511686,26
1643479882302,34067.5116894,-222
1643479882302,34067.5116926,-267
1643479882302,34067.5116954,-92
1643479882337,34067.5116991,42
1643479882337,34067.511702,-18
1643479882337,34067.5117049,-96
1643479882337,34067.5117077,44
1643479882337,34067.5117106,94
1643479882337,34067.5117135,-130
1643479882337,34067.5117163,-210
1643479882337,34067.5117192,-85
1643479882337,34067.511722,-7
1643479882337,34067.511725,26
1643479882368,34067.5117279,30
1643479882368,34067.5117308,-14
1643479882368,34067.5117337,-73
1643479882368,34067.5117365,-26
1643479882368,34067.5117393,104
1643479882368,34067.5117421,-4
1643479882368,34067.5117449,-191
1643479882368,34068.0586754,18
1643479882368,34068.0586893,288
1643479882368,34068.0586947,120
1643479882405,34068.0587001,-212
1643479882405,34068.0587037,-236
1643479882405,34068.0587088,59
1643479882405,34068.058712,210
1643479882405,34068.058716,30
1643479882405,34068.0587193,-125
1643479882405,34068.0587243,21
1643479882405,34068.0587273,248
1643479882405,34068.0587305,148
1643479882405,34068.0587358,-73
1643479882436,34068.0587402,-111
1643479882436,34068.058745,-85
1643479882436,34068.0587499,-7
1643479882436,34068.0587549,111
1643479882436,34068.0587581,137
1643479882436,34068.058763,101
1643479882436,34068.0587679,-52
1643479882436,34068.0587728,-179
1643479882436,34068.0587758,241
1643479882436,34068.058779,981
1643479882469,34068.058784,1059
1643479882469,34068.058788,288
1643479882469,34068.058793,-314
1643479882469,34068.0587961,-163
1643479882845,34068.0588011,87
1643479882845,34068.0588043,82
1643479882845,34068.0588074,-7
1643479882845,34068.0588104,-179
1643479882845,34068.0588134,-139
1643479882845,34068.0588164,108
1643479882845,34068.0588193,40
1643479882845,34068.0588223,-80
1643479882845,34068.0588252,52
1643479882845,34068.0588282,-37
1643479882878,34068.0588311,-153
1643479882878,34068.0588344,134
1643479882878,34068.0588373,229
1643479882878,34068.0588403,-37
1643479882878,34068.0588432,-59
1643479882878,34068.0588461,87
1643479882878,34068.0588491,28
1643479882878,34068.0588521,26
1643479882878,34068.0588556,170
1643479882878,34068.0588611,111
1643479882911,34068.0588641,75
1643479882911,34068.0588672,189
1643479882911,34068.0588721,87
1643479882911,34068.058877,37
1643479882911,34068.0588819,241
1643479882911,34068.058885,212
1643479882911,34068.05889,44
1643479882911,34068.058893,94
1643479882911,34068.0588962,104
1643479882911,34068.0589012,-80
1643479882945,34068.0589057,-122
1643479882945,34068.0589107,18
1643479882945,34068.0589153,21
1643479882945,34068.0589203,-92
1643479882945,34068.0589236,-80
1643479882945,34068.0589267,28
1643479882945,34068.0589318,21
1643479882945,34068.0589351,-151
1643479882945,34068.0589405,-191
1643479882945,34068.0589436,-11
1643479882978,34068.058947,63
1643479882978,34068.058952,-4
1643479882978,34068.0589554,-70
1643479882978,34068.0589603,-170
1643479882978,34068.0589635,-179
1643479882978,34068.0589668,2
1643479882978,34068.6624048,151
1643479882978,34068.6624172,35
1643479882978,34068.6624211,-153
1643479882978,34068.6624245,-132
1643479883012,34068.6624276,-35
1643479883012,34068.6624317,11
1643479883012,34068.6624347,52
1643479883012,34068.6624388,-33
1643479883012,34068.662442,-200
1643479883012,34068.6624462,-158
1643479883012,34068.6624493,61
1643479883012,34068.6624532,113
1643479883012,34068.6624562,-21
1643479883012,34068.6624591,-118
1643479883045,34068.6624622,-158
1643479883045,34068.6624652,-144
1643479883045,34068.6624689,14
1643479883045,34068.6624732,104
1643479883045,34068.6624763,-47
1643479883045,34068.6624825,-132
1643479883045,34068.6624854,-85
1643479883045,34068.6624885,-104
1643479883045,34068.6624946,-78
1643479883045,34068.6624978,11
1643479883080,34068.662501,7
1643479883080,34068.662504,-30
1643479883080,34068.6625069,-104
1643479883080,34068.6625108,-212
1643479883446,34068.6625138,-132
1643479883446,34068.6625169,177
1643479883446,34068.6625199,645
1643479883446,34068.6625228,985
1643479883446,34068.6625261,550
1643479883446,34068.662529,-250
1643479883446,34068.662532,-293
1643479883446,34068.662535,80
1643479883446,34068.6625379,-14
1643479883446,34068.6625409,-238
1643479883479,34068.6625439,-66
1643479883479,34068.6625468,92
1643479883479,34068.6625497,-49
1643479883479,34068.6625526,-179
1643479883479,34068.6625557,-115
1643479883479,34068.6625586,0
1643479883479,34068.662595,9
1643479883479,34068.6626089,11
1643479883479,34068.6626123,30
1643479883479,34068.6626165,-40
1643479883511,34068.6626219,-21
1643479883511,34068.6626249,101
1643479883511,34068.6626279,61
1643479883511,34068.662631,26
1643479883511,34068.6626339,92
1643479883511,34068.6626368,52
1643479883511,34068.6626398,68
1643479883511,34068.6626437,125
1643479883511,34068.6626467,2
1643479883511,34068.6626515,59
1643479883545,34068.6626546,302
1643479883545,34068.6626575,205
1643479883545,34068.6626603,-23
1643479883545,34068.6626632,37
1643479883545,34068.6626662,146
1643479883545,34068.662677,82
1643479883545,34068.6626922,-49
1643479883545,34068.6626993,-59
1643479883545,34068.6627064,61
1643479883545,34068.6627105,56
1643479883579,34068.6627134,-80
1643479883579,34068.6627164,-127
1643479883579,34068.6627194,-104
1643479883579,34068.6627225,-68
1643479883579,34068.6627256,-4
1643479883579,34069.2607526,-37
1643479883579,34069.2607659,-111
1643479883579,34069.2607715,-30
1643479883579,34069.2607767,42
1643479883579,34069.2607801,-80
1643479883612,34069.2607841,-104
1643479883612,34069.2607874,87
1643479883612,34069.2607923,113
1643479883612,34069.2607954,-80
1643479883612,34069.2607986,-156
1643479883612,34069.2608027,-73
1643479883612,34069.2608057,-16
1643479883612,34069.2608097,28
1643479883612,34069.2608128,63
1643479883612,34069.2608169,-14
1643479883645,34069.2608201,-94
1643479883645,34069.2608243,-94
1643479883645,34069.2608274,-66
1643479883645,34069.2608325,-7
1643479883645,34069.2608357,26
1643479883645,34069.2608405,16
1643479883645,34069.2608434,-40
1643479883645,34069.2608466,-177
1643479883645,34069.2608514,-203
1643479883645,34069.2608543,-49
1643479883678,34069.2608575,52
1643479883678,34069.2608605,14
1643479883678,34069.2608635,16
1643479883678,34069.2608664,63
1643479883978,34069.2608693,-73
1643479883978,34069.2608721,-184
1643479883978,34069.2608754,4
1643479883978,34069.2608783,108
1643479883978,34069.2608812,-40
1643479883978,34069.2608841,-108
1643479883978,34069.260887,-16
1643479883978,34069.2608899,63
1643479883978,34069.2608928,-2
1643479883978,34069.2608957,-96
1643479884001,34069.2608985,-4
1643479884001,34069.2609014,241
1643479884001,34069.2609043,576
1643479884001,34069.2609071,943
1643479884001,34069.26091,728
1643479884001,34069.2609131,-96
1643479884001,34069.260916,-295
1643479884001,34069.260919,87
1643479884001,34069.260922,14
1643479884001,34069.2609249,-148
1643479884023,34069.2609278,-4
1643479884023,34069.2609307,-2
1643479884023,34069.2609336,-101
1643479884023,34069.2609364,-49
1643479884023,34069.2609393,-9
1643479884023,34069.2609423,21
1643479884023,34069.2609457,63
1643479884023,34069.2609486,-33
1643479884023,34069.2609515,-87
1643479884023,34069.2609544,-21
1643479884044,34069.2609576,37
1643479884044,34069.2609606,85
1643479884044,34069.2609635,35
1643479884044,34069.2609663,23
1643479884044,34069.26097,80
1643479884044,34069.2609731,73
1643479884044,34069.2609762,96
1643479884044,34069.2609804,163
1643479884044,34069.2609846,222
1643479884044,34069.2609878,163
1643479884067,34069.260993,26
1643479884067,34069.2609961,89
1643479884067,34069.2610002,245
1643479884067,34069.2610033,203
1643479884067,34069.8081349,78
1643479884067,34069.8081486,99
1643479884067,34069.8081542,108
1643479884067,34069.8081597,-80
1643479884067,34069.808163,-153
1643479884067,34069.8081682,-37
1643479884101,34069.8081714,-23
1643479884101,34069.8081747,-26
1643479884101,34069.8081797,-18
1643479884101,34069.808183,-101
1643479884101,34069.808188,-139
1643479884101,34069.8081925,-52
1643479884101,34069.8081973,11
1643479884101,34069.8082005,-61
1643479884101,34069.8082054,-85
1643479884101,34069.808209,11
1643479884135,34069.8082122,-61
1643479884135,34069.808217,-170
1643479884135,34069.808221,37
1643479884135,34069.8082262,148
1643479884135,34069.8082294,-92
1643479884135,34069.8082342,-125
1643479884135,34069.8082387,78
1643479884135,34069.8082436,52
1643479884135,34069.8082466,-54
1643479884135,34069.8082498,-42
1643479884169,34069.8082547,-61
1643479884169,34069.8082586,-99
1643479884169,34069.8082634,-42
1643479884169,34069.8082667,40
1643479884435,34069.8082716,14
1643479884435,34069.8082747,-11
1643479884435,34069.8082778,40
1643479884435,34069.8082808,-52
1643479884435,34069.8082838,-125
1643479884435,34069.8082868,33
1643479884435,34069.8082898,68
1643479884435,34069.8082927,-111
1643479884435,34069.8082958,-118
1643479884435,34069.8082988,52
1643479884468,34069.8083018,68
1643479884468,34069.8083048,-11
1643479884468,34069.8083078,56
1643479884468,34069.8083108,85
1643479884468,34069.8083137,-40
1643479884468,34069.8083167,-16
1643479884468,34069.8083198,54
1643479884468,34069.8083236,16
1643479884468,34069.8083268,2
1643479884468,34069.8083319,-16
1643479884502,34069.8083349,18
1643479884502,34069.8083381,44
1643479884502,34069.8083431,-73
1643479884502,34069.8083479,-113
1643479884502,34069.8083527,137
1643479884502,34069.8083561,638
1643479884502,34069.808361,1085
1643479884502,34069.8083643,834
1643479884502,34069.8083695,-59
1643479884502,34069.8083727,-349
1643479884536,34069.8083776,37
1643479884536,34069.8083807,14
1643479884536,34069.8083858,-208
1643479884536,34069.8083894,-115
1643479884536,34069.8083943,-33
1643479884536,34069.8083989,-33
1643479884536,34069.8084036,-4
1643479884536,34069.8084066,-59
1643479884536,34069.8084098,-111
1643479884536,34069.8084146,-16
1643479884569,34069.8084186,61
1643479884569,34069.8084236,-4
1643479884569,34069.8084267,-44
1643479884569,34070.263649,-16
1643479884569,34070.263662,-56
1643479884569,34070.2636669,-92
1643479884569,34070.2636722,30
1643479884569,34070.2636754,189
1643479884569,34070.2636795,144
1643479884569,34070.2636824,33
1643479884601,34070.2636852,78
1643479884601,34070.263688,89
1643479884601,34070.2636909,-9
1643479884601,34070.2636938,78
1643479884601,34070.2636966,212
1643479884601,34070.2636995,99
1643479884601,34070.2637023,-18
1643479884601,34070.2637051,30
1643479884601,34070.263708,70
1643479884601,34070.2637109,-23
1643479884635,34070.263714,-132
1643479884635,34070.2637168,-165
1643479884635,34070.2637197,-132
1643479884635,34070.2637225,-108
1643479884635,34070.2637254,-184
1643479884635,34070.2637282,-210
1643479884635,34070.2637311,-104
1643479884635,34070.2637343,-111
1643479884635,34070.2637372,-193
1643479884635,34070.26374,-151
1643479884672,34070.2637429,-94
1643479884672,34070.2637457,-127
1643479884672,34070.2637486,-148
1643479884672,34070.2637521,-122
1643479885035,34070.263755,-111
1643479885035,34070.2637579,-94
1643479885035,34070.2637608,-99
1643479885035,34070.2637636,-82
1643479885035,34070.2637665,-14
1643479885035,34070.2637701,-37
1643479885035,34070.2637729,-82
1643479885035,34070.2637757,-94
1643479885035,34070.2637786,-73
1643479885035,34070.2637814,30
1643479885068,34070.2637842,-2
1643479885068,34070.263787,-104
1643479885068,34070.2637899,-16
1643479885068,34070.2637927,33
1643479885068,34070.2637956,-61
1643479885068,34070.2637988,-80
1643479885068,34070.2638017,-42
1643479885068,34070.2638046,-70
1643479885068,34070.2638074,-49
1643479885068,34070.2638103,35
1643479885111,34070.2638132,30
1643479885111,34070.2638162,0
1643479885111,34070.263819,-9
1643479885111,34070.2638221,-47
1643479885111,34070.263825,-42
1643479885111,34070.263828,21
1643479885111,34070.2638309,44
1643479885111,34070.2638338,42
1643479885111,34070.2638368,37
1643479885111,34070.2638398,-18
1643479885135,34070.2638428,-30
1643479885135,34070.2638456,30
1643479885135,34070.2638485,18
1643479885135,34070.2638515,-49
1643479885135,34070.2638544,-56
1643479885135,34070.2638574,-21
1643479885135,34070.2638603,47
1643479885135,34070.263864,371
1643479885135,34070.2638669,914
1643479885135,34070.2638699,1040
1643479885170,34070.2638728,361
1643479885170,34070.2638757,-241
1643479885170,34070.8615543,-141
1643479885170,34070.8615683,-14
1643479885170,34070.8615738,-54
1643479885170,34070.8615791,9
1643479885170,34070.8615826,28
1643479885170,34070.8615876,-78
1643479885170,34070.8615906,-144
1643479885170,34070.8615937,-23
1643479885200,34070.8615991,80
1643479885200,34070.8616053,0
1643479885200,34070.8616105,-40
1643479885200,34070.8616137,-11
1643479885200,34070.8616187,-44
1643479885200,34070.8616219,-44
1643479885200,34070.8616268,14
1643479885200,34070.8616301,11
1643479885200,34070.8616351,-37
1643479885200,34070.8616383,-11
1643479885223,34070.8616431,56
1643479885223,34070.8616463,78
1643479885223,34070.8616513,70
1643479885223,34070.8616546,68
1643479885223,34070.8616595,122
1643479885223,34070.8616626,151
1643479885223,34070.8616678,80
1643479885223,34070.861671,99
1643479885223,34070.861676,163
1643479885223,34070.8616792,59
1643479885245,34070.8616842,4
1643479885245,34070.8616874,30
1643479885245,34070.8616923,-75
1643479885245,34070.8616955,-87
1643479885545,34070.8617004,-4
1643479885545,34070.8617034,-82
1643479885545,34070.8617064,-118
1643479885545,34070.8617093,-87
1643479885545,34070.8617122,-127
1643479885545,34070.8617151,-141
1643479885545,34070.861718,-120
1643479885545,34070.8617208,-78
1643479885545,34070.8617238,-61
1643479885545,34070.8617266,-130
1643479885583,34070.86173,-165
1643479885583,34070.8617329,-89
1643479885583,34070.861736,-63
1643479885583,34070.8617392,-87
1643479885583,34070.861742,-35
1643479885583,34070.8617449,-16
1643479885583,34070.8617478,-89
1643479885583,34070.8617694,-139
1643479885583,34070.8617745,-35
1643479885583,34070.8617775,92
1643479885614,34070.8617804,-37
1643479885614,34070.8617831,-186
1643479885614,34070.861786,-61
1643479885614,34070.8617892,28
1643479885614,34070.861792,-66
1643479885614,34070.8618114,-80
1643479885614,34070.8618238,-42
1643479885614,34070.8618279,-52
1643479885614,34070.8618309,-4
1643479885614,34070.8618339,-7
1643479885648,34070.8618368,-73
1643479885648,34070.8618397,-68
1643479885648,34070.8618425,-89
1643479885648,34070.8618454,-47
1643479885648,34070.8618483,61
1643479885648,34070.8618512,7
1643479885648,34070.8618542,-73
1643479885648,34070.8618571,-66
1643479885648,34070.86186,-61
1643479885648,34070.8618629,-2
1643479885679,34070.8618658,99
1643479885679,34071.3649316,89
1643479885679,34071.3649435,23
1643479885679,34071.3649474,-7
1643479885679,34071.3649506,-44
1643479885679,34071.3649537,-37
1643479885679,34071.3649569,44
1643479885679,34071.36496,99
1643479885679,34071.3649631,75
1643479885679,34071.3649663,-21
1643479885712,34071.3649694,-82
1643479885712,34071.3649725,-33
1643479885712,34071.3649756,-49
1643479885712,34071.3649788,-63
1643479885712,34071.3649822,63
1643479885712,34071.3649869,163
1643479885712,34071.3649901,439
1643479885712,34071.3649933,952
1643479885712,34071.3649964,841
1643479885712,34071.3649998,-30
1643479885749,34071.3650031,-382
1643479885749,34071.3650235,-23
1643479885749,34071.3650306,47
1643479885749,34071.3650343,-68
1643479885749,34071.3650395,23
1643479885749,34071.3650429,-35
1643479885749,34071.365048,-189
1643479885749,34071.365057,-148
1643479885749,34071.3650602,-80
1643479885749,34071.3650633,-14
1643479885779,34071.3650665,75
1643479885779,34071.3650966,92
1643479885779,34071.3651346,23
1643479885779,34071.365158,-73
1643479886078,34071.3651775,-61
1643479886078,34071.3651826,-7
1643479886078,34071.3651858,7
1643479886078,34071.3651984,18
1643479886078,34071.3652023,26
1643479886078,34071.3652055,111
1643479886078,34071.3652085,151
1643479886078,34071.3652115,68
1643479886078,34071.3652146,59
1643479886078,34071.3652177,118
1643479886112,34071.3652207,80
1643479886112,34071.3652238,30
1643479886112,34071.3652269,167
1643479886112,34071.3652397,238
1643479886112,34071.365243,82
1643479886112,34071.3652462,21
1643479886112,34071.3652492,28
1643479886112,34071.3652526,-61
1643479886112,34071.3652557,-89
1643479886112,34071.3652587,-70
1643479886144,34071.3652617,-42
1643479886144,34071.3652648,-4
1643479886144,34071.3652678,-70
1643479886144,34071.3652708,-130
1643479886144,34071.3652739,-94
1643479886144,34071.365277,-104
1643479886144,34071.3652813,-111
1643479886144,34071.3652847,4
1643479886144,34071.365288,26
1643479886144,34071.3652912,-139
1643479886177,34071.3653155,-137
1643479886177,34071.3653215,26
1643479886177,34071.3653253,40
1643479886177,34071.3653289,-23
1643479886177,34071.3653325,-54
1643479886177,34071.3653359,-125
1643479886177,34071.3653391,-172
1643479886177,34071.3653425,-70
1643479886177,34071.3653459,73
1643479886177,34071.3653677,80
1643479886211,34071.9136152,4
1643479886211,34071.9136278,-61
1643479886211,34071.9136327,-118
1643479886211,34071.9136379,-120
1643479886211,34071.9136409,-63
1643479886211,34071.9136439,-59
1643479886211,34071.9136478,-52
1643479886211,34071.9136519,7
1643479886211,34071.9136568,-37
1643479886211,34071.9136598,-125
1643479886244,34071.9136655,-82
1643479886244,34071.9136705,-35
1643479886244,34071.9136798,-68
1643479886244,34071.9136831,-40
1643479886244,34071.9137092,-18
1643479886244,34071.9137187,-78
1643479886244,34071.9137225,-82
1643479886244,34071.9137256,-56
1643479886244,34071.9137285,-40
1643479886244,34071.9137315,21
1643479886277,34071.9137345,61
1643479886277,34071.9137374,26
1643479886277,34071.9137404,16
1643479886277,34071.9137433,40
1643479886277,34071.9137462,23
1643479886277,34071.913749,-11
1643479886277,34071.9137519,30
1643479886277,34071.9137563,89
1643479886277,34071.9137592,30
1643479886277,34071.9137622,-35
1643479886312,34071.913765,-28
1643479886312,34071.9137679,2
1643479886312,34071.9139433,174
1643479886312,34071.9139534,548
1643479886690,34071.9139572,877
1643479886690,34071.9139603,723
1643479886690,34071.9139631,111
1643479886690,34071.9139661,-196
1643479886690,34071.913969,2
1643479886690,34071.9139719,125
1643479886690,34071.9139813,18
1643479886690,34071.9139853,-52
1643479886690,34071.9139883,-26
1643479886690,34071.9139911,-18
1643479886723,34071.9139941,-26
1643479886723,34071.913997,11
1643479886723,34071.9139999,16
1643479886723,34071.9140028,26
1643479886723,34071.9140057,78
1643479886723,34071.9140248,61
1643479886723,34071.9140304,-7
1643479886723,34071.9140335,-18
1643479886723,34071.914037,37
1643479886723,34071.9140398,87
1643479886758,34071.9140427,87
1643479886758,34071.9140465,66
1643479886758,34071.9140494,44
1643479886758,34071.9140522,73
1643479886758,34071.9140551,160
1643479886758,34071.9140579,186
1643479886758,34071.9140608,104
1643479886758,34071.9140637,96
1643479886758,34071.9140665,193
1643479886758,34071.9140694,148
1643479886790,34071.9140722,42
1643479886790,34071.9140752,78
1643479886790,34071.9140781,68
1643479886790,34071.9140868,-14
1643479886790,34071.9141139,-2
1643479886790,34071.9141228,-4
1643479886790,34071.9141272,-54
1643479886790,34071.9141302,-21
1643479886790,34071.9141332,18
1643479886790,34072.5144311,-35
1643479886824,34072.5144439,-70
1643479886824,34072.5144475,-4
1643479886824,34072.5144511,68
1643479886824,34072.5144543,2
1643479886824,34072.5144574,-144
1643479886824,34072.5144606,-115
1643479886824,34072.5144637,23
1643479886824,34072.5144668,4
1643479886824,34072.51447,-66
1643479886824,34072.514473,-78
1643479886860,34072.5144761,-44
1643479886860,34072.5144793,11
1643479886860,34072.5144825,21
1643479886860,34072.5144856,42
1643479886860,34072.5144888,75
1643479886860,34072.5144928,0
1643479886860,34072.5145294,-68
1643479886860,34072.5145351,-66
1643479886860,34072.5145389,-63
1643479886860,34072.5145422,-9
1643479886891,34072.514546,35
1643479886891,34072.5145493,7
1643479886891,34072.5145529,2
1643479886891,34072.5145561,-11
1643479886891,34072.5145592,-85
1643479886891,34072.5145623,-125
1643479886891,34072.5145665,-94
1643479886891,34072.5145711,-9
1643479886891,34072.5145813,66
1643479886891,34072.5145845,47
1643479886923,34072.5145877,7
1643479886923,34072.5145908,-30
1643479886923,34072.5145939,-104
1643479886923,34072.514597,-87
1643479887322,34072.5146002,89
1643479887322,34072.5146033,186
1643479887322,34072.5146065,68
1643479887322,34072.5146096,-54
1643479887322,34072.5146126,-75
1643479887322,34072.5146158,-80
1643479887322,34072.5146189,-21
1643479887322,34072.5146222,120
1643479887322,34072.5146253,125
1643479887322,34072.5146284,-9
1643479887356,34072.5146316,-101
1643479887356,34072.5146347,-111
1643479887356,34072.5146378,85
1643479887356,34072.514641,583
1643479887356,34072.5146445,1011
1643479887356,34072.5146478,728
1643479887356,34072.5146509,-80
1643479887356,34072.5146539,-330
1643479887356,34072.5146571,66
1643479887356,34072.5146602,172
1643479887389,34072.5146633,-18
1643479887389,34072.5146664,-44
1643479887389,34072.5146696,-9
1643479887389,34072.5146729,-56
1643479887389,34072.5146763,-127
1643479887389,34072.5146807,-42
1643479887389,34072.514684,156
1643479887389,34072.5146872,130
1643479887389,34072.5146906,-49
1643479887389,34072.5146939,-40
1643479887426,34072.5146988,16
1643479887426,34072.5147023,-44
1643479887426,34072.5147067,2
1643479887426,34072.5147101,167
1643479887426,34072.5147168,210
1643479887426,34072.5147201,106
1643479887426,34072.5147256,26
1643479887426,34072.514729,52
1643479887426,34073.1622728,144
1643479887426,34073.1623039,158
1643479887457,34073.1623123,118
1643479887457,34073.1623158,200
1643479887457,34073.1623197,224
1643479887457,34073.1623232,106
1643479887457,34073.1623275,148
1643479887457,34073.1623307,260
1643479887457,34073.1623344,146
1643479887457,34073.1623379,-18
1643479887457,34073.1623417,-61
1643479887457,34073.1623448,-21
1643479887492,34073.1623486,42
1643479887492,34073.1623521,-23
1643479887492,34073.1623568,-146
1643479887492,34073.1623599,-104
1643479887492,34073.1623637,-49
1643479887492,34073.1623669,-92
1643479887492,34073.1623712,-73
1643479887492,34073.1623743,-35
1643479887492,34073.1623781,-85
1643479887492,34073.1623812,-148
1643479887528,34073.1623907,-78
1643479887528,34073.1623939,14
1643479887528,34073.1623968,-7
1643479887528,34073.1623996,-16
1643479887528,34073.162403,-16
1643479887528,34073.162406,-63
1643479887528,34073.16241,-54
1643479887528,34073.1624131,7
1643479887528,34073.1624169,7
1643479887528,34073.16242,7
1643479887556,34073.1624238,26
1643479887556,34073.1624276,16
1643479887556,34073.1624315,-33
1643479887556,34073.1624345,-59
1643479887825,34073.1624384,37
1643479887825,34073.1624415,94
1643479887825,34073.1624444,23
1643479887825,34073.1624473,16
1643479887825,34073.1624503,26
1643479887825,34073.1624532,-54
1643479887825,34073.1625124,-28
1643479887825,34073.1625177,85
1643479887825,34073.1625209,118
1643479887825,34073.1625238,87
1643479887845,34073.1625267,37
1643479887845,34073.1625295,26
1643479887845,34073.1625323,18
1643479887845,34073.1625352,-9
1643479887845,34073.162538,-7
1643479887845,34073.1625409,28
1643479887845,34073.1625438,82
1643479887845,34073.162547,106
1643479887845,34073.1625503,44
1643479887845,34073.1625531,-52
1643479887869,34073.1625558,-42
1643479887869,34073.1625586,137
1643479887869,34073.1625625,536
1643479887869,34073.1625653,1018
1643479887869,34073.162569,860
1643479887869,34073.1625718,7
1643479887869,34073.1625747,-309
1643479887869,34073.1625775,2
1643479887869,34073.1625802,4
1643479887869,34073.1625831,-96
1643479887889,34073.1625859,23
1643479887889,34073.1625887,42
1643479887889,34073.1625915,-63
1643479887889,34073.1625947,-118
1643479887889,34073.1625975,-70
1643479887889,34073.1626003,26
1643479887889,34073.1626031,52
1643479887889,34073.6639784,0
1643479887889,34073.6639924,0
1643479887889,34073.6639963,63
1643479887913,34073.6640017,78
1643479887913,34073.6640049,44
1643479887913,34073.66401,-2
1643479887913,34073.6640135,-11
1643479887913,34073.6640188,68
1643479887913,34073.664022,122
1643479887913,34073.664027,52
1643479887913,34073.6640303,54
1643479887913,34073.6640352,189
1643479887913,34073.6640384,212
1643479887933,34073.6640434,118
1643479887933,34073.6640465,92
1643479887933,34073.6640514,156
1643479887933,34073.6640546,208
1643479887933,34073.6640595,177
1643479887933,34073.6640626,61
1643479887933,34073.6640677,-37
1643479887933,34073.6640711,-28
1643479887933,34073.6640762,-18
1643479887933,34073.6640794,-104
1643479887955,34073.6640842,-85
1643479887955,34073.6640873,37
1643479887955,34073.6640923,-7
1643479887955,34073.6640954,-113
1643479887955,34073.6641003,-85
1643479887955,34073.6641035,-42
1643479887955,34073.6641083,-37
1643479887955,34073.6641114,0
1643479887955,34073.6641163,30
1643479887955,34073.6641199,28
1643479887979,34073.6641247,66
1643479887979,34073.6641278,156
1643479887979,34073.6641327,52
1643479887979,34073.6641358,-165
1643479888378,34073.6641409,-35
1643479888378,34073.664144,264
1643479888378,34073.6641468,236
1643479888378,34073.6641497,70
1643479888378,34073.6641526,177
1643479888378,34073.6641554,260
1643479888378,34073.6641582,125
1643479888378,34073.6641611,170
1643479888378,34073.664164,210
1643479888378,34073.6641668,96
1643479888413,34073.6641697,203
1643479888413,34073.6641725,295
1643479888413,34073.6641753,108
1643479888413,34073.6641782,73
1643479888413,34073.6641811,252
1643479888413,34073.6641839,248
1643479888413,34073.6641868,189
1643479888413,34073.6641897,193
1643479888413,34073.6641926,108
1643479888413,34073.6641959,122
1643479888445,34073.6641987,163
1643479888445,34073.6642016,18
1643479888445,34073.6642045,-11
1643479888445,34073.6642073,177
1643479888445,34073.6642103,264
1643479888445,34073.6642134,92
1643479888445,34073.6642174,-89
1643479888445,34073.6642219,-40
1643479888445,34073.6642259,118
1643479888445,34073.664229,323
1643479888479,34073.664233,643
1643479888479,34073.6642361,829
1643479888479,34073.6642402,517
1643479888479,34073.6642433,-70
1643479888479,34073.6642472,-267
1643479888479,34073.6642504,-87
1643479888479,34074.2123751,18
1643479888479,34074.2123884,-78
1643479888479,34074.2123923,-156
1643479888479,34074.2123954,-16
1643479888512,34074.2123986,-26
1643479888512,34074.2124017,-177
1643479888512,34074.2124049,-44
1643479888512,34074.2124079,-9
1643479888512,34074.212411,-191
1643479888512,34074.2124141,-59
1643479888512,34074.2124171,160
1643479888512,34074.2124201,26
1643479888512,34074.212424,-148
1643479888512,34074.212427,-89
1643479888545,34074.2124301,54
1643479888545,34074.2124331,52
1643479888545,34074.2124362,-115
1643479888545,34074.2124393,-212
1643479888545,34074.2124423,-101
1643479888545,34074.2124454,106
1643479888545,34074.2124489,177
1643479888545,34074.212452,127
1643479888545,34074.212455,96
1643479888545,34074.2124582,37
1643479888578,34074.2124612,-127
1643479888578,34074.2124643,-151
1643479888578,34074.2124673,132
1643479888578,34074.2124703,250
1643479888578,34074.2124739,-28
1643479888578,34074.2124774,-300
1643479888578,34074.2124805,-312
1643479888578,34074.2124836,-70
1643479888578,34074.2124867,7
1643479888578,34074.2124898,-203
1643479888611,34074.212493,-234
1643479888611,34074.2124961,-99
1643479888611,34074.2124991,-127
1643479888611,34074.2125021,-281
1643479888978,34074.2125057,-182
1643479888978,34074.2125087,0
1643479888978,34074.2125118,-59
1643479888978,34074.2125148,-23
1643479888978,34074.2125179,21
1643479888978,34074.2125209,-148
1643479888978,34074.2125241,-191
1643479888978,34074.2125272,14
1643479888978,34074.2125303,99
1643479888978,34074.2125335,-7
1643479889011,34074.2125365,-26
1643479889011,34074.2125402,-7
1643479889011,34074.2125434,-68
1643479889011,34074.2125469,-96
1643479889011,34074.2125499,-23
1643479889011,34074.212553,-7
1643479889011,34074.212556,-156
1643479889011,34074.2125602,-139
1643479889011,34074.2125634,89
1643479889011,34074.2126017,87
1643479889045,34074.2126104,-89
1643479889045,34074.2126141,-40
1643479889045,34074.2126174,35
1643479889045,34074.2126206,0
1643479889045,34074.2126237,73
1643479889045,34074.2126268,-21
1643479889045,34074.2126303,-184
1643479889045,34074.2126339,-85
1643479889045,34074.2126373,-37
1643479889045,34074.2126411,4
1643479889079,34074.2126442,54
1643479889079,34074.2126483,-182
1643479889079,34074.2126525,-205
1643479889079,34074.2127225,113
1643479889079,34074.2127265,73
1643479889079,34074.8118951,-141
1643479889079,34074.8119064,-14
1643479889079,34074.8119101,234
1643479889079,34074.8119132,598
1643479889079,34074.8119162,985
1643479889112,34074.8119191,510
1643479889112,34074.8119222,-330
1643479889112,34074.8119251,-286
1643479889112,34074.8119281,-21
1643479889112,34074.8119325,-26
1643479889112,34074.8119361,33
1643479889112,34074.8119401,-40
1643479889112,34074.8119432,-184
1643479889112,34074.811949,-163
1643479889112,34074.811952,-54
1643479889145,34074.8119551,37
1643479889145,34074.8119606,11
1643479889145,34074.8119643,-75
1643479889145,34074.8119682,-85
1643479889145,34074.8119713,4
1643479889145,34074.8119764,111
1643479889145,34074.8119811,54
1643479889145,34074.811986,-94
1643479889145,34074.8119905,-94
1643479889145,34074.8119954,23
1643479889178,34074.8119984,82
1643479889178,34074.8120014,47
1643479889178,34074.8120065,33
1643479889178,34074.8120094,115
1643479889178,34074.8120124,179
1643479889178,34074.8120168,104
1643479889178,34074.8120199,73
1643479889178,34074.8120247,172
1643479889178,34074.8120276,191
1643479889178,34074.8120307,139
1643479889201,34074.8120358,118
1643479889201,34074.8120399,87
1643479889201,34074.8120448,30
1643479889201,34074.8120488,-26
1643479889646,34074.8120536,-35
1643479889646,34074.8120576,-35
1643479889646,34074.8120605,-127
1643479889646,34074.8120637,-200
1643479889646,34074.8120665,-80
1643479889646,34074.8120696,-4
1643479889646,34074.8120725,-156
1643479889646,34074.8120754,-174
1643479889646,34074.8120783,35
1643479889646,34074.8120812,47
1643479889679,34074.8120842,-134
1643479889679,34074.8120871,-120
1643479889679,34074.8120901,-66
1643479889679,34074.812093,-158
1643479889679,34074.8120958,-40
1643479889679,34074.8120988,151
1643479889679,34074.8121016,14
1643479889679,34074.8121047,-92
1643479889679,34074.8121076,21
1643479889679,34074.8121104,-47
1643479889711,34074.8121132,-177
1643479889711,34074.812116,-66
1643479889711,34074.8121189,-2
1643479889711,34074.8121217,-42
1643479889711,34074.8121246,16
1643479889711,34074.8121274,59
1643479889711,34074.8121303,-35
1643479889711,34074.8121331,-146
1643479889711,34074.8121359,-49
1643479889711,34074.8121391,139
1643479889745,34074.812142,108
1643479889745,34074.8121448,-33
1643479889745,34074.8121477,-89
1643479889745,34074.8121506,-49
1643479889745,34075.4594558,4
1643479889745,34075.4594692,-35
1643479889745,34075.4594738,9
1643479889745,34075.4594795,139
1643479889745,34075.459483,56
1643479889745,34075.4594889,-70
1643479889778,34075.4594925,-94
1643479889778,34075.4594978,-68
1643479889778,34075.4595011,78
1643479889778,34075.4595064,304
1643479889778,34075.4595099,669
1643479889778,34075.4595159,860
1643479889778,34075.4595193,293
1643479889778,34075.4595245,-264
1643479889778,34075.459528,-49
1643479889778,34075.4595331,108
1643479889812,34075.4595364,-120
1643479889812,34075.4595416,-262
1643479889812,34075.459545,-151
1643479889812,34075.4595501,127
1643479889812,34075.4595535,177
1643479889812,34075.4595587,-73
1643479889812,34075.4595621,-184
1643479889812,34075.4595674,37
1643479889812,34075.4595707,210
1643479889812,34075.4595762,18
1643479889845,34075.4595796,-99
1643479889845,34075.4595849,130
1643479889845,34075.4595884,179
1643479889845,34075.4595935,23
1643479889845,34075.459597,137
1643479889845,34075.4596021,238
1643479889845,34075.4596055,70
1643479889845,34075.4596107,18
1643479889845,34075.4596142,182
1643479889845,34075.4596193,215
1643479889879,34075.4596226,66
1643479889879,34075.4596278,174
1643479889879,34075.4596312,408
1643479889879,34075.4596364,234
1643479890047,34075.4596398,56
1643479890047,34075.4596431,189
1643479890047,34075.4596462,151
1643479890047,34075.4596494,70
1643479890047,34075.4596526,177
1643479890047,34075.4596557,125
1643479890047,34075.4596589,42
1643479890047,34075.4596621,87
1643479890047,34075.4596662,-7
1643479890047,34075.4596694,-70
1643479890079,34075.4596725,21
1643479890079,34075.4596757,80
1643479890079,34075.4596788,89
1643479890079,34075.4596819,96
1643479890079,34075.4596851,61
1643479890079,34075.4596882,-11
1643479890079,34075.4596916,18
1643479890079,34075.4596948,92
1643479890079,34075.4596979,9
1643479890079,34075.459701,26
1643479890122,34075.4597042,210
1643479890122,34075.4597073,151
1643479890122,34075.4597105,-113
1643479890122,34075.4597136,-146
1643479890122,34075.4597168,113
1643479890122,34075.4597199,250
1643479890122,34075.4597231,82
1643479890122,34075.4597265,-28
1643479890122,34075.4597297,92
1643479890122,34075.4597327,151
1643479890145,34075.4597359,-37
1643479890145,34075.459739,-137
1643479890145,34075.4597425,73
1643479890145,34075.8636068,222
1643479890145,34075.8636184,59
1643479890145,34075.8636222,-101
1643479890145,34075.8636264,18
1643479890145,34075.8636295,193
1643479890145,34075.8636325,111
1643479890145,34075.8636354,23
1643479890178,34075.8636384,101
1643479890178,34075.8636414,78
1643479890178,34075.8636444,-30
1643479890178,34075.8636474,-16
1643479890178,34075.8636504,113
1643479890178,34075.8636533,165
1643479890178,34075.8636563,44
1643479890178,34075.8636592,-75
1643479890178,34075.8636622,-4
1643479890178,34075.8636652,212
1643479890212,34075.8636682,347
1643479890212,34075.8636712,609
1643479890212,34075.8636741,1011
1643479890212,34075.863677,673
1643479890212,34075.86368,-118
1643479890212,34075.8636829,-167
1643479890212,34075.8636859,75
1643479890212,34075.8636888,-96
1643479890212,34075.8636918,-115
1643479890212,34075.8636948,137
1643479890245,34075.8636977,99
1643479890245,34075.8637007,-68
1643479890245,34075.8637037,-28
1643479890245,34075.8637066,61
1643479890245,34075.8637096,82
1643479890245,34075.8637125,23
1643479890245,34075.8637155,-2
1643479890245,34075.8637186,89
1643479890245,34075.8637217,44
1643479890245,34075.8637246,-75
1643479890278,34075.8637277,108
1643479890278,34075.8637308,262
1643479890278,34075.8637623,101
1643479890278,34075.8637706,101
1643479890582,34075.8637743,205
1643479890582,34075.8637775,158
1643479890582,34075.8637805,146
1643479890582,34075.8637835,134
1643479890582,34075.8637865,134
1643479890582,34075.8637895,158
1643479890582,34075.8637924,177
1643479890582,34075.8638215,274
1643479890582,34075.8638512,255
1643479890582,34075.8638584,156
1643479890607,34075.863862,94
1643479890607,34075.8638672,-7
1643479890607,34075.8638714,9
1643479890607,34075.8638763,16
1643479890607,34075.8638796,-184
1643479890607,34075.8638828,-125
1643479890607,34075.8638879,63
1643479890607,34075.8638926,-28
1643479890607,34075.8638977,-42
1643479890607,34075.8639024,-75
1643479890627,34075.8639075,-170
1643479890627,34075.8639122,-26
1643479890627,34075.8639172,54
1643479890627,34075.8639218,-18
1643479890627,34075.8639268,-87
1643479890627,34075.8639316,-134
1643479890627,34075.8639366,-35
1643479890627,34075.8639413,0
1643479890627,34075.8639463,-130
1643479890627,34075.8639504,-14
1643479890648,34075.8639555,146
1643479890648,34075.8639586,-92
1643479890648,34076.4137141,-182
1643479890648,34076.4137276,73
1643479890648,34076.4137318,-14
1643479890648,34076.4137378,-229
1643479890648,34076.4137413,26
1643479890648,34076.4137466,182
1643479890648,34076.41375,-85
1643479890648,34076.4137556,-141
1643479890671,34076.413759,80
1643479890671,34076.4137643,82
1643479890671,34076.4137677,-167
1643479890671,34076.4137731,-158
1643479890671,34076.4137764,153
1643479890671,34076.4137816,122
1643479890671,34076.413785,-170
1643479890671,34076.4137902,-222
1643479890671,34076.4137936,-144
1643479890671,34076.4137988,-16
1643479890691,34076.4138021,66
1643479890691,34076.4138073,-132
1643479890691,34076.4138108,-210
1643479890691,34076.4138165,-16
1643479890691,34076.4138199,-49
1643479890691,34076.413825,-153
1643479890691,34076.4138284,141
1643479890691,34076.4138335,631
1643479890691,34076.4138367,966
1643479890691,34076.4138398,673
1643479890713,34076.4138429,-191
1643479890713,34076.4138461,-326
1643479890713,34076.4138492,2
1643479890713,34076.4138526,-191
1643479890713,34076.4138562,-224
1643479890713,34076.4138615,18
1643479890713,34076.4138648,-59
1643479890713,34076.4138708,-229
1643479890713,34076.4138742,-104
1643479890713,34076.4138793,9
1643479890738,34076.4138827,-94
1643479890738,34076.4138879,-163
1643479890738,34076.4138913,-94
1643479890738,34076.4138965,37
1643479891435,34076.4138999,44
1643479891435,34076.4139031,-70
1643479891435,34076.4139062,-141
1643479891435,34076.4139093,-122
1643479891435,34076.4139125,4
1643479891435,34076.4139156,113
1643479891435,34076.4139188,66
1643479891435,34076.4139219,-11
1643479891435,34076.4139251,2
1643479891435,34076.4139282,56
1643479891469,34076.4139312,94
1643479891469,34076.4139344,59
1643479891469,34076.4139375,52
1643479891469,34076.4139406,172
1643479891469,34076.4139438,115
1643479891469,34076.4139469,-134
1643479891469,34076.4139501,-137
1643479891469,34076.4139532,141
1643479891469,34076.4139563,182
1643479891469,34076.4139595,-215
1643479891503,34076.4139629,-345
1643479891503,34076.4139684,0
1643479891503,34076.4139717,-63
1643479891503,34076.4139773,-335
1643479891503,34076.4139807,-163
1643479891503,34076.413986,-35
1643479891503,34076.4139893,-73
1643479891503,34076.4139945,-61
1643479891503,34076.4139979,-179
1643479891503,34076.414003,-132
1643479891536,34076.4140064,92
1643479891536,34077.2579812,-47
1643479891536,34077.2579934,-196
1643479891536,34077.2579968,44
1643479891536,34077.2579999,73
1643479891536,34077.2580039,-179
1643479891536,34077.2580069,-89
1643479891536,34077.2580118,23
1643479891536,34077.2580147,-137
1643479891536,34077.2580177,-14
1643479891569,34077.2580207,264
1643479891569,34077.2580258,16
1643479891569,34077.2580298,-314
1643479891569,34077.2580347,-101
1643479891569,34077.2580391,68
1643479891569,34077.2580439,2
1643479891569,34077.2580482,35
1643479891569,34077.2580531,16
1643479891569,34077.2580576,-54
1643479891569,34077.2580624,-99
1643479891601,34077.258067,-78
1643479891601,34077.2580717,96
1643479891601,34077.2580746,215
1643479891601,34077.2580776,35
1643479891601,34077.2580817,-212
1643479891601,34077.2580847,-177
1643479891601,34077.2580894,37
1643479891601,34077.2580923,120
1643479891601,34077.2580952,56
1643479891601,34077.2580982,-63
1643479891635,34077.2581023,-33
1643479891635,34077.2581054,456
1643479891635,34077.2581106,1026
1643479891635,34077.2581153,834
1643479891635,34077.2581202,85
1643479891635,34077.2581231,-196
1643479891635,34077.2581261,-73
1643479891635,34077.2581291,-75
1643479891635,34077.2581331,26
1643479891635,34077.2581361,127
1643479891670,34077.25814,0
1643479891670,34077.2581431,-75
1643479891670,34077.2581479,7
1643479891670,34077.2581519,23
1643479891890,34077.2581566,-66
1643479891890,34077.2581595,-85
1643479891890,34077.2581624,33
1643479891890,34077.2581654,144
1643479891890,34077.2581682,137
1643479891890,34077.258171,-7
1643479891890,34077.2581738,-170
1643479891890,34077.2581766,-113
1643479891890,34077.2581793,61
1643479891890,34077.2581822,68
1643479891914,34077.258185,89
1643479891914,34077.2581877,170
1643479891914,34077.2581905,21
1643479891914,34077.2581933,-54
1643479891914,34077.258196,111
1643479891914,34077.2581989,177
1643479891914,34077.2582016,179
1643479891914,34077.2582044,120
1643479891914,34077.2582076,-96
1643479891914,34077.2582106,-118
1643479891941,34077.2582146,189
1643479891941,34077.2582176,290
1643479891941,34077.2582216,-37
1643479891941,34077.2582247,-182
1643479891941,34077.2582297,2
1643479891941,34077.258234,9
1643479891941,34077.2582382,-132
1643479891941,34077.2582412,-144
1643479891941,34077.2582463,-49
1643479891941,34077.2582503,18
1643479891961,34077.7133012,18
1643479891961,34077.7133147,-66
1643479891961,34077.7133185,-144
1643479891961,34077.7133218,-104
1643479891961,34077.7133276,-11
1643479891961,34077.7133324,-14
1643479891961,34077.7133375,-68
1643479891961,34077.7133414,-26
1643479891961,34077.7133465,96
1643479891961,34077.7133512,73
1643479891986,34077.7133563,-87
1643479891986,34077.7133592,-108
1643479891986,34077.7133627,-18
1643479891986,34077.7133676,23
1643479891986,34077.7133709,-18
1643479891986,34077.713375,-33
1643479891986,34077.7133782,7
1643479891986,34077.7133835,-2
1643479891986,34077.7133865,-40
1643479891986,34077.7133896,-89
1643479892006,34077.7133941,-89
1643479892006,34077.7133995,37
1643479892006,34077.7134027,134
1643479892006,34077.7134069,26
1643479892006,34077.71341,-115
1643479892006,34077.7134142,4
1643479892006,34077.7134173,82
1643479892006,34077.7134223,-101
1643479892006,34077.713427,-113
1643479892006,34077.7134323,63
1643479892025,34077.7134355,26
1643479892025,34077.7134405,-148
1643479892025,34077.7134449,-75
1643479892025,34077.7134501,99
1643479892025,34077.7134534,0
1643479892025,34077.7134583,-158
1643479892025,34077.7134615,-4
1643479892025,34077.7134667,406
1643479892025,34077.7134699,765
1643479892025,34077.713474,791
1643479892045,34077.7134772,352
1643479892045,34077.7134822,-167
1643479892045,34077.7134853,-234
1643479892045,34077.7134895,-56
1643479892435,34077.7134928,0
1643479892435,34077.7134958,-66
1643479892435,34077.7134988,-144
1643479892435,34077.7135017,-87
1643479892435,34077.7135047,0
1643479892435,34077.7135077,-30
1643479892435,34077.7135106,-44
1643479892435,34077.7135152,-26
1643479892435,34077.7135185,-21
1643479892435,34077.7135214,9
1643479892469,34077.7135275,30
1643479892469,34077.7135306,-11
1643479892469,34077.7135335,-63
1643479892469,34077.7135364,-40
1643479892469,34077.7135394,56
1643479892469,34077.7135424,139
1643479892469,34077.7135454,122
1643479892469,34077.7135483,70
1643479892469,34077.7135512,80
1643479892469,34077.7135541,73
1643479892501,34077.7135569,125
1643479892501,34077.7135599,229
1643479892501,34077.7135631,146
1643479892501,34077.7135661,9
1643479892501,34077.7135693,61
1643479892501,34077.7135743,172
1643479892501,34077.7135774,141
1643479892501,34077.7135803,23
1643479892501,34077.7135834,-18
1643479892501,34078.2608452,23
1643479892539,34078.2608566,2
1643479892539,34078.2608603,-78
1643479892539,34078.2608634,-63
1643479892539,34078.2608664,-14
1643479892539,34078.2608694,-54
1643479892539,34078.2608728,-68
1643479892539,34078.2608758,-14
1643479892539,34078.2608789,4
1643479892539,34078.260882,-35
1643479892539,34078.2608849,-59
1643479892569,34078.2608878,-49
1643479892569,34078.2608909,-23
1643479892569,34078.2608946,-7
1643479892569,34078.2608975,-23
1643479892569,34078.2609004,-44
1643479892569,34078.2609034,-44
1643479892569,34078.2609063,-35
1643479892569,34078.2609093,-40
1643479892569,34078.2609129,-59
1643479892569,34078.2609197,-61
1643479892602,34078.2609259,-35
1643479892602,34078.2609294,-26
1643479892602,34078.260934,-54
1643479892602,34078.260937,-63
1643479892602,34078.2609402,-56
1643479892602,34078.2609434,-59
1643479892602,34078.2609466,-47
1643479892602,34078.2609497,-66
1643479892602,34078.2609526,-96
1643479892602,34078.2609558,-78
1643479892635,34078.260959,-61
1643479892635,34078.2609632,-80
1643479892635,34078.2609662,-78
1643479892635,34078.2609692,-82
1643479892635,34078.2609722,-101
1643479892635,34078.2609751,-96
1643479892635,34078.2609781,-92
1643479892635,34078.2609811,-104
1643479892635,34078.2609841,-115
1643479892635,34078.2609876,-134
1643479892667,34078.2609908,-146
1643479892667,34078.2609938,-111
1643479892667,34078.2609976,11
1643479892667,34078.261001,295
1643479892877,34078.2610041,749
1643479892877,34078.2610071,858
1643479892877,34078.2610102,193
1643479892877,34078.2610143,-399
1643479892877,34078.2610175,-208
1643479892877,34078.2610204,-14
1643479892877,34078.2610233,-179
1643479892877,34078.2610263,-203
1643479892877,34078.2610292,-106
1643479892877,34078.2610323,-120
1643479892901,34078.2610352,-141
1643479892901,34078.2610381,-108
1643479892901,34078.2610411,-96
1643479892901,34078.2610444,-96
1643479892901,34078.2610475,-75
1643479892901,34078.2610504,-52
1643479892901,34078.261054,-35
1643479892901,34078.2610569,-14
1643479892901,34078.2610599,-2
1643479892901,34078.2610629,-7
1643479892923,34078.261066,7
1643479892923,34078.261069,30
1643479892923,34078.261072,54
1643479892923,34078.261075,85
1643479892923,34078.2610779,104
1643479892923,34078.2610809,99
1643479892923,34078.2610838,104
1643479892923,34078.2610868,111
1643479892923,34078.7118162,106
1643479892923,34078.7118309,106
1643479892945,34078.7118362,99
1643479892945,34078.7118417,78
1643479892945,34078.7118446,52
1643479892945,34078.7118477,23
1643479892945,34078.7118522,-11
1643479892945,34078.7118553,-37
1643479892945,34078.7118602,-47
1643479892945,34078.7118651,-61
1643479892945,34078.7118699,-80
1643479892945,34078.7118744,-82
1643479892967,34078.7118794,-75
1643479892967,34078.7118839,-73
1643479892967,34078.7118888,-73
1643479892967,34078.7118932,-80
1643479892967,34078.7118981,-87
1643479892967,34078.7119011,-68
1643479892967,34078.7119042,-49
1643479892967,34078.7119082,-40
1643479892967,34078.7119112,-26
1643479892967,34078.7119161,-26
1643479892988,34078.7119191,-37
1643479892988,34078.7119221,-33
1643479892988,34078.7119251,-14
1643479892988,34078.7119302,-14
1643479892988,34078.7119348,-11
1643479892988,34078.7119397,2
1643479892988,34078.7119442,2
1643479892988,34078.711949,-7
1643479892988,34078.7119534,4
1643479892988,34078.7119582,11
1643479893013,34078.7119611,-2
1643479893013,34078.7119641,-4
1643479893013,34078.7119692,18
1643479893013,34078.7119739,40
1643479893013,34078.7119779,47
1643479893013,34078.7119809,49
1643479893013,34078.7119848,47
1643479893013,34078.7119878,37
1643479893013,34078.7119918,21
1643479893013,34078.7119952,7
1643479893034,34078.7120001,9
1643479893034,34078.7120031,11
1643479893034,34078.7120084,7
1643479893034,34078.7120115,9
1643479893434,34078.7120165,11
1643479893434,34078.7120196,-9
1643479893434,34078.7120225,-9
1643479893434,34078.7120254,177
1643479893434,34078.7120283,640
1643479893434,34078.7120311,1030
1643479893434,34078.712034,635
1643479893434,34078.7120369,-229
1643479893434,34078.7120397,-345
1643479893434,34078.7120426,11
1643479893456,34078.7120455,-44
1643479893456,34078.7120484,-179
1643479893456,34078.7120513,-89
1643479893456,34078.7120542,-61
1643479893456,34078.7120572,-96
1643479893456,34078.7120602,-78
1643479893456,34078.7120655,-70
1643479893456,34078.7120685,-87
1643479893456,34078.7120735,-92
1643479893456,34078.7120764,-75
1643479893478,34078.7120796,-18
1643479893478,34078.7120846,4
1643479893478,34078.7120894,-16
1643479893478,34078.7120944,14
1643479893478,34078.7120991,26
1643479893478,34078.7121041,-26
1643479893478,34078.7121087,-35
1643479893478,34079.2635794,-16
1643479893478,34079.2635921,33
1643479893478,34079.2635978,153
1643479893501,34079.2636031,219
1643479893501,34079.2636078,186
1643479893501,34079.2636129,141
1643479893501,34079.2636163,80
1643479893501,34079.2636213,-33
1643479893501,34079.2636246,-134
1643479893501,34079.263628,-30
1643479893501,34079.263633,146
1643479893501,34079.2636367,40
1643479893501,34079.2636417,-200
1643479893522,34079.263645,-283
1643479893522,34079.2636502,-217
1643479893522,34079.2636535,-85
1643479893522,34079.2636585,49
1643479893522,34079.2636626,14
1643479893522,34079.2636675,-226
1643479893522,34079.2636711,-262
1643479893522,34079.2636744,-4
1643479893522,34079.2636794,37
1643479893522,34079.2636843,-122
1643479893544,34079.2636895,-63
1643479893544,34079.263693,47
1643479893544,34079.2636983,-23
1643479893544,34079.2637024,-70
1643479893544,34079.2637057,-37
1643479893544,34079.2637111,-26
1643479893544,34079.2637144,-11
1643479893544,34079.2637193,7
1643479893544,34079.2637228,21
1643479893544,34079.2637279,42
1643479893567,34079.2637312,37
1643479893567,34079.2637363,23
1643479893567,34079.2637398,59
1643479893567,34079.2637441,99
1643479893567,34079.2637474,78
1643479893567,34079.2637522,56
1643479893567,34079.2637555,68
1643479893567,34079.2637605,40
1643479893567,34079.2637654,-16
1643479893567,34079.2637704,-14
1643479893589,34079.263774,26
1643479893589,34079.263779,70
1643479893589,34079.2637826,94
1643479893589,34079.2637868,44
1643479893980,34079.2637902,7
1643479893980,34079.263794,21
1643479893980,34079.2637971,23
1643479893980,34079.2638002,-30
1643479893980,34079.2638032,-56
1643479893980,34079.2638062,191
1643479893980,34079.2638094,699
1643479893980,34079.2638125,1078
1643479893980,34079.2638155,730
1643479893980,34079.2638187,-158
1643479894011,34079.2638218,-371
1643479894011,34079.2638249,37
1643479894011,34079.263828,52
1643479894011,34079.263831,-96
1643479894011,34079.2638341,-56
1643479894011,34079.2638372,-92
1643479894011,34079.2638779,-96
1643479894011,34079.2638824,54
1643479894011,34079.2638855,80
1643479894011,34079.2638921,-18
1643479894046,34079.2638966,-11
1643479894046,34079.2639007,54
1643479894046,34079.2639042,63
1643479894046,34079.2639101,40
1643479894046,34079.2639134,30
1643479894046,34079.2639166,56
1643479894046,34079.8136898,94
1643479894046,34079.8137022,92
1643479894046,34079.8137059,85
1643479894046,34079.813709,134
1643479894080,34079.813713,163
1643479894080,34079.813716,165
1643479894080,34079.8137198,200
1643479894080,34079.8137229,208
1643479894080,34079.8137269,179
1643479894080,34079.81373,170
1643479894080,34079.8137339,158
1643479894080,34079.813737,163
1643479894080,34079.8137401,165
1643479894080,34079.8137443,59
1643479894111,34079.8137474,-54
1643479894111,34079.8137523,-82
1643479894111,34079.8137552,-87
1643479894111,34079.8137583,-80
1643479894111,34079.8137634,-96
1643479894111,34079.8137664,-134
1643479894111,34079.8137693,-139
1643479894111,34079.8137733,-134
1643479894111,34079.8137764,-137
1643479894111,34079.8137814,-132
1643479894145,34079.8137864,-115
1643479894145,34079.8137912,-106
1643479894145,34079.8137941,-101
1643479894145,34079.8137972,-101
1643479894145,34079.813802,-101
1643479894145,34079.8138069,-92
1643479894145,34079.8138108,-59
1643479894145,34079.8138138,-35
1643479894145,34079.8138176,-47
1643479894145,34079.8138207,-61
1643479894183,34079.8138247,-54
1643479894183,34079.8138288,-56
1643479894183,34079.8138318,-78
1643479894183,34079.8138359,-92
1643479894183,34079.813839,-56
1643479894183,34079.8138428,-23
1643479894183,34079.8138459,-44
1643479894183,34079.8138489,-52
1643479894183,34079.8138539,-28
1643479894183,34079.8138583,-28
1643479894214,34079.8138625,-56
1643479894214,34079.8138655,-70
1643479894214,34079.8138694,-56
1643479894214,34079.8138734,-49
1643479894547,34079.8138764,-52
1643479894547,34079.8138794,-42
1643479894547,34079.8138822,-26
1643479894547,34079.8138851,-18
1643479894547,34079.8138878,-33
1643479894547,34079.8138906,-42
1643479894547,34079.8138934,70
1643479894547,34079.8138962,449
1643479894547,34079.813899,957
1643479894547,34079.8139019,929
1643479894580,34079.8139047,78
1643479894580,34079.8139076,-434
1643479894580,34079.8139109,-61
1643479894580,34079.8139137,96
1643479894580,34079.8139164,-130
1643479894580,34079.8139193,-101
1643479894580,34079.8139223,-2
1643479894580,34079.8139252,-54
1643479894580,34079.8139282,-61
1643479894580,34079.8139322,-23
1643479894611,34079.8139353,-33
1643479894611,34079.8139393,-40
1643479894611,34079.8139432,-30
1643479894611,34079.8139462,-23
1643479894611,34079.8139493,-9
1643479894611,34080.3636911,2
1643479894611,34080.3637036,0
1643479894611,34080.3637087,14
1643479894611,34080.363714,37
1643479894611,34080.3637189,47
1643479894646,34080.3637237,63
1643479894646,34080.3637284,92
1643479894646,34080.3637332,115
1643479894646,34080.3637377,134
1643479894646,34080.3637427,144
1643479894646,34080.3637457,139
1643479894646,34080.3637489,130
1643479894646,34080.3637537,111
1643479894646,34080.363761,78
1643479894646,34080.3637661,40
1643479894679,34080.3637694,2
1643479894679,34080.3637727,-42
1643479894679,34080.3637758,-92
1643479894679,34080.3641242,-125
1643479894679,34080.3643142,-151
1643479894679,34080.3643276,-179
1643479894679,34080.3643325,-191
1643479894679,34080.3643365,-189
1643479894679,34080.3643404,-193
1643479894679,34080.3643441,-196
1643479894711,34080.3643478,-189
1643479894711,34080.3643522,-167
1643479894711,34080.3643558,-153
1643479894711,34080.3643595,-148
1643479894711,34080.3643631,-137
1643479894711,34080.3643667,-118
1643479894711,34080.3643703,-101
1643479894711,34080.364374,-87
1643479894711,34080.3643776,-78
1643479894711,34080.3643811,-68
1643479894747,34080.3643847,-56
1643479894747,34080.3643884,-56
1643479894747,34080.3643919,-56
1643479894747,34080.3643955,-47
1643479894747,34080.364399,-42
1643479894747,34080.3644027,-37
1643479894747,34080.3644063,-23
1643479894747,34080.3644101,-9
1643479894747,34080.364414,-14
1643479894747,34080.3644176,-14
1643479894782,34080.3644211,-9
1643479894782,34080.3644248,-14
1643479894782,34080.3644286,-35
1643479894782,34080.3644322,-54
1643479895078,34080.3644356,-52
1643479895078,34080.3644391,-37
1643479895078,34080.3644426,-35
1643479895078,34080.3644461,-33
1643479895078,34080.3644496,-26
1643479895078,34080.3644532,-21
1643479895078,34080.3644567,-28
1643479895078,34080.3644602,-14
1643479895078,34080.3644641,184
1643479895078,34080.3644677,664
1643479895112,34080.3644713,1092
1643479895112,34080.3644749,747
1643479895112,34080.3644785,-153
1643479895112,34080.364482,-328
1643479895112,34080.3644857,66
1643479895112,34080.3644892,33
1643479895112,34080.3644927,-120
1643479895112,34080.3644966,-11
1643479895112,34080.3645001,23
1643479895112,34080.3645037,-42
1643479895150,34080.3645072,-11
1643479895150,34080.3645108,28
1643479895150,34080.3645143,18
1643479895150,34080.3645178,26
1643479895150,34080.9140572,49
1643479895150,34080.9140696,56
1643479895150,34080.9140732,66
1643479895150,34080.9140764,85
1643479895150,34080.9140793,101
1643479895150,34080.9140824,113
1643479895181,34080.9140853,130
1643479895181,34080.9140883,151
1643479895181,34080.9140913,170
1643479895181,34080.9140943,174
1643479895181,34080.9140972,172
1643479895181,34080.9141002,179
1643479895181,34080.9141031,186
1643479895181,34080.914106,179
1643479895181,34080.914109,184
1643479895181,34080.9141119,182
1643479895211,34080.9141149,156
1643479895211,34080.9141178,130
1643479895211,34080.9141207,115
1643479895211,34080.9141237,82
1643479895211,34080.9141266,52
1643479895211,34080.9141295,52
1643479895211,34080.9141324,49
1643479895211,34080.9141354,28
1643479895211,34080.9141383,11
1643479895211,34080.9141412,26
1643479895246,34080.9141443,42
1643479895246,34080.9141472,37
1643479895246,34080.9141501,40
1643479895246,34080.9141531,56
1643479895246,34080.914156,68
1643479895246,34080.914159,82
1643479895246,34080.9141619,106
1643479895246,34080.9141648,122
1643479895246,34080.9141677,122
1643479895246,34080.9141706,115
1643479895282,34080.9141735,115
1643479895282,34080.9141765,122
1643479895282,34080.9141794,125
1643479895282,34080.9141822,125
1643479895282,34080.9141855,115
1643479895282,34080.9141884,106
1643479895282,34080.9141913,108
1643479895282,34080.9141942,111
1643479895282,34080.9141971,104
1643479895282,34080.9142001,111
1643479895312,34080.9142031,130
1643479895312,34080.914206,132
1643479895312,34080.9142089,134
1643479895312,34080.9142119,141
1643479895645,34080.9142149,134
1643479895645,34080.9142177,108
1643479895645,34080.9142207,89
1643479895645,34080.9142237,99
1643479895645,34080.9142268,104
1643479895645,34080.9142297,87
1643479895645,34080.9142329,92
1643479895645,34080.9142358,118
1643479895645,34080.914316,115
1643479895645,34080.9143257,85
1643479895678,34080.9143296,92
1643479895678,34080.914333,252
1643479895678,34080.914336,640
1643479895678,34080.914339,1030
1643479895678,34080.9143419,813
1643479895678,34080.914345,61
1643479895678,34080.914348,-172
1643479895678,34080.914351,144
1643479895678,34080.914354,160
1643479895678,34080.914357,4
1643479895711,34080.91436,59
1643479895711,34080.9143629,111
1643479895711,34080.9143659,63
1643479895711,34081.4636227,59
1643479895711,34081.4636337,94
1643479895711,34081.4636373,96
1643479895711,34081.4636403,85
1643479895711,34081.4636432,94
1643479895711,34081.463646,113
1643479895711,34081.4636487,120
1643479895745,34081.4636518,120
1643479895745,34081.4636546,118
1643479895745,34081.4636574,113
1643479895745,34081.4636602,115
1643479895745,34081.4636629,130
1643479895745,34081.4636657,148
1643479895745,34081.4636685,167
1643479895745,34081.4636713,172
1643479895745,34081.4636741,172
1643479895745,34081.4636769,182
1643479895779,34081.4636796,189
1643479895779,34081.4636824,191
1643479895779,34081.4636852,193
1643479895779,34081.4636881,186
1643479895779,34081.4636911,160
1643479895779,34081.4636942,137
1643479895779,34081.4636972,118
1643479895779,34081.4637002,96
1643479895779,34081.4637067,78
1643479895779,34081.4637107,73
1643479895812,34081.4637157,73
1643479895812,34081.4637186,66
1643479895812,34081.4637217,73
1643479895812,34081.4637258,87
1643479895812,34081.4637289,80
1643479895812,34081.4637319,30
1643479895812,34081.463736,-26
1643479895812,34081.463739,4
1643479895812,34081.4637429,47
1643479895812,34081.463746,28
1643479895844,34081.4637499,14
1643479895844,34081.4637529,37
1643479895844,34081.4637568,54
1643479895844,34081.4637598,49
1643479895844,34081.4637637,26
1643479895844,34081.4637667,11
1643479895844,34081.4637704,14
1643479895844,34081.4637934,7
1643479895844,34081.4637994,0
1643479895844,34081.4638027,-4
1643479895878,34081.4638074,-21
1643479895878,34081.4638103,-18
1643479895878,34081.4638134,9
1643479895878,34081.4638182,40
1643479896245,34081.4638228,47
1643479896245,34081.4638258,47
1643479896245,34081.4638287,66
1643479896245,34081.4638316,63
1643479896245,34081.4638345,16
1643479896245,34081.4638373,-4
1643479896245,34081.4638402,14
1643479896245,34081.4638441,16
1643479896245,34081.4638469,21
1643479896245,34081.4638501,35
1643479896278,34081.463853,28
1643479896278,34081.4638558,18
1643479896278,34081.4638586,23
1643479896278,34081.4638614,21
1643479896278,34081.4638642,120
1643479896278,34081.4638673,449
1643479896278,34081.4638704,872
1643479896278,34081.4638734,877
1643479896278,34081.4638786,241
1643479896278,34081.4638817,-229
1643479896316,34081.4638867,-40
1643479896316,34081.4638897,94
1643479896316,34082.0635411,-37
1643479896316,34082.0635546,-23
1643479896316,34082.0635588,63
1643479896316,34082.0635645,54
1643479896316,34082.0635681,35
1643479896316,34082.0635724,44
1643479896316,34082.0635756,37
1643479896316,34082.0635787,11
1643479896344,34082.0635821,-2
1643479896344,34082.0635854,26
1643479896344,34082.0635897,52
1643479896344,34082.063593,47
1643479896344,34082.0635961,54
1643479896344,34082.0635993,92
1643479896344,34082.0636024,106
1643479896344,34082.0636056,92
1643479896344,34082.0636088,85
1643479896344,34082.0636119,104
1643479896381,34082.063615,122
1643479896381,34082.0636181,144
1643479896381,34082.0636211,184
1643479896381,34082.0636243,198
1643479896381,34082.0636274,177
1643479896381,34082.0636306,163
1643479896381,34082.0636337,139
1643479896381,34082.0636369,115
1643479896381,34082.06364,92
1643479896381,34082.0636432,68
1643479896400,34082.0636463,37
1643479896400,34082.0636495,-11
1643479896400,34082.0636526,-4
1643479896400,34082.0636559,73
1643479896400,34082.063659,85
1643479896400,34082.063662,14
1643479896400,34082.0636651,-18
1643479896400,34082.0636682,2
1643479896400,34082.0636713,7
1643479896400,34082.0636752,14
1643479896422,34082.0636783,56
1643479896422,34082.0636814,63
1643479896422,34082.0636844,35
1643479896422,34082.0636875,47
1643479896422,34082.0636906,63
1643479896422,34082.0636937,52
1643479896422,34082.0636968,40
1643479896422,34082.0636999,47
1643479896422,34082.0637033,99
1643479896422,34082.0637064,125
1643479896445,34082.0637095,87
1643479896445,34082.0637125,92
1643479896445,34082.0637156,111
1643479896445,34082.0637187,56
1643479896934,34082.0637218,52
1643479896934,34082.063725,127
1643479896934,34082.063728,127
1643479896934,34082.0637311,94
1643479896934,34082.0637342,125
1643479896934,34082.0637373,132
1643479896934,34082.0637407,94
1643479896934,34082.0637445,73
1643479896934,34082.0637476,59
1643479896934,34082.0637506,70
1643479896956,34082.0637537,104
1643479896956,34082.0637568,106
1643479896956,34082.0637599,94
1643479896956,34082.063763,92
1643479896956,34082.063766,42
1643479896956,34082.0637691,-4
1643479896956,34082.0637722,193
1643479896956,34082.0637753,732
1643479896956,34082.0637784,1153
1643479896956,34082.0637815,761
1643479896978,34082.0637848,-54
1643479896978,34082.7622894,-179
1643479896978,34082.7623007,106
1643479896978,34082.7623044,59
1643479896978,34082.7623075,-44
1643479896978,34082.7623105,7
1643479896978,34082.7623134,26
1643479896978,34082.7623163,14
1643479896978,34082.7623191,66
1643479896978,34082.762322,108
1643479897000,34082.7623249,78
1643479897000,34082.7623278,49
1643479897000,34082.7623306,66
1643479897000,34082.7623335,49
1643479897000,34082.7623369,30
1643479897000,34082.7623404,66
1643479897000,34082.7623432,99
1643479897000,34082.7623461,61
1643479897000,34082.7623489,16
1643479897000,34082.7623518,42
1643479897023,34082.7623546,118
1643479897023,34082.7623574,170
1643479897023,34082.7623807,184
1643479897023,34082.7623988,174
1643479897023,34082.7624034,130
1643479897023,34082.7624068,122
1643479897023,34082.7624098,182
1643479897023,34082.7624128,198
1643479897023,34082.7624158,146
1643479897023,34082.7624191,78
1643479897047,34082.762422,7
1643479897047,34082.7624251,0
1643479897047,34082.7624285,61
1643479897047,34082.7624323,26
1643479897047,34082.7624353,-92
1643479897047,34082.7624383,-111
1643479897047,34082.7624413,-30
1643479897047,34082.7624442,28
1643479897047,34082.7624472,11
1643479897047,34082.7624502,-18
1643479897068,34082.7624531,-33
1643479897068,34082.7624561,-99
1643479897068,34082.762459,-104
1643479897068,34082.762462,14
1643479897068,34082.762465,30
1643479897068,34082.762468,-75
1643479897068,34082.762471,-68
1643479897068,34082.762474,33
1643479897068,34082.762477,21
1643479897068,34082.76248,-9
1643479897089,34082.762483,63
1643479897089,34082.762486,78
1643479897089,34082.762489,11
1643479897089,34082.762492,0
1643479897337,34082.762495,28
1643479897337,34082.762498,49
1643479897337,34082.762501,26
1643479897337,34082.762504,-23
1643479897337,34082.762507,-7
1643479897337,34082.7625099,7
1643479897337,34082.7625128,-2
1643479897337,34082.7625158,40
1643479897337,34082.7625188,63
1643479897337,34082.7625219,-18
1643479897355,34082.7625248,-85
1643479897355,34082.7625278,-30
1643479897355,34082.7625307,75
1643479897355,34082.7625336,37
1643479897355,34082.7625366,-99
1643479897355,34082.7625396,-87
1643479897355,34082.7625425,47
1643479897355,34082.7625455,413
1643479897355,34082.7625484,976
1643479897355,34082.7625514,877
1643479897378,34083.1668656,56
1643479897378,34083.1668778,-307
1643479897378,34083.1668815,-78
1643479897378,34083.1668846,9
1643479897378,34083.1668876,-73
1643479897378,34083.1668907,-70
1643479897378,34083.1668936,-2
1643479897378,34083.1668966,0
1643479897378,34083.1668995,-9
1643479897378,34083.1669025,63
1643479897402,34083.1669055,56
1643479897402,34083.1669085,-49
1643479897402,34083.1669114,23
1643479897402,34083.1669144,144
1643479897402,34083.1669173,16
1643479897402,34083.1669203,-73
1643479897402,34083.1669241,63
1643479897402,34083.166927,106
1643479897402,34083.1669299,40
1643479897402,34083.1669329,118
1643479897423,34083.1669359,130
1643479897423,34083.1669388,-56
1643479897423,34083.1669418,21
1643479897423,34083.1669448,371
1643479897423,34083.1669478,399
1643479897423,34083.1669509,137
1643479897423,34083.1669538,49
1643479897423,34083.1669568,182
1643479897423,34083.1669598,271
1643479897423,34083.1669628,94
1643479897446,34083.1669657,-101
1643479897446,34083.1669687,-14
1643479897446,34083.1669717,106
1643479897446,34083.1669746,42
1643479897446,34083.1669775,-28
1643479897446,34083.1669804,-35
1643479897446,34083.1669834,-21
1643479897446,34083.1669863,-28
1643479897446,34083.1669892,-113
1643479897446,34083.1669921,-54
1643479897470,34083.1669952,122
1643479897470,34083.1669985,-26
1643479897470,34083.1670016,-278
1643479897470,34083.1670047,-96
1643479897470,34083.1670092,193
1643479897470,34083.1670126,139
1643479897470,34083.1670403,11
1643479897470,34083.1670456,-33
1643479897470,34083.1670492,-108
1643479897470,34083.1670523,-85
1643479897492,34083.1670554,-28
1643479897492,34083.1670585,14
1643479897492,34083.1670616,115
1643479897492,34083.1670646,73
1643479897978,34083.1670676,-89
1643479897978,34083.1670706,-56
1643479897978,34083.1670741,153
1643479897978,34083.1670771,156
1643479897978,34083.1670801,-80
1643479897978,34083.1670831,-132
1643479897978,34083.1670861,61
1643479897978,34083.1670891,165
1643479897978,34083.1670921,80
1643479897978,34083.1670951,-101
1643479898000,34083.1670981,-184
1643479898000,34083.1671011,-44
1643479898000,34083.1671041,61
1643479898000,34083.1671071,33
1643479898000,34083.1671101,-28
1643479898000,34083.1671132,-66
1643479898000,34083.1671162,144
1643479898000,34083.1671193,605
1643479898000,34083.1671222,971
1643479898000,34083.8117157,754
1643479898023,34083.8117267,26
1643479898023,34083.8117307,-276
1643479898023,34083.8117342,-153
1643479898023,34083.8117375,-146
1643479898023,34083.8117407,-9
1643479898023,34083.8117439,35
1643479898023,34083.8117471,-196
1643479898023,34083.8117503,-224
1643479898023,34083.8117535,-49
1643479898023,34083.8117567,21
1643479898045,34083.8117599,-44
1643479898045,34083.8117632,-104
1643479898045,34083.8117663,-148
1643479898045,34083.8117695,-219
1643479898045,34083.8117728,-87
1643479898045,34083.8117759,165
1643479898045,34083.8117792,35
1643479898045,34083.8117824,-281
1643479898045,34083.8117856,-210
1643479898045,34083.811789,92
1643479898070,34083.8117922,106
1643479898070,34083.8117955,14
1643479898070,34083.8117987,63
1643479898070,34083.8118019,-21
1643479898070,34083.8118051,-61
1643479898070,34083.8118083,127
1643479898070,34083.8118115,127
1643479898070,34083.8118147,28
1643479898070,34083.8118179,47
1643479898070,34083.811821,-75
1643479898090,34083.8118242,-151
1643479898090,34083.8118274,54
1643479898090,34083.8118306,108
1643479898090,34083.8118339,-163
1643479898090,34083.8118371,-319
1643479898090,34083.8118403,-158
1643479898090,34083.8118434,-28
1643479898090,34083.8118466,-111
1643479898090,34083.8118498,-127
1643479898090,34083.8118694,-52
1643479898116,34083.8118744,-56
1643479898116,34083.8118777,-73
1643479898116,34083.8118808,-78
1643479898116,34083.8118841,-56
1643479898116,34083.8118873,-54
1643479898116,34083.8118905,-153
1643479898116,34083.8118937,-148
1643479898116,34083.811897,-63
1643479898116,34083.8119004,-94
1643479898116,34083.8119036,-42
1643479898136,34083.8119068,73
1643479898136,34083.8119101,82
1643479898136,34083.8121927,89
1643479898136,34083.8121982,-21
1643479898481,34083.8122016,-203
1643479898481,34083.812205,-92
1643479898481,34083.8122083,106
1643479898481,34083.8122116,122
1643479898481,34083.8122149,96
1643479898481,34083.8122182,-52
1643479898481,34083.8122215,-210
1643479898481,34083.8122247,-42
1643479898481,34083.8122283,165
1643479898481,34083.8122316,61
1643479898518,34083.8122349,-44
1643479898518,34083.8122381,-23
1643479898518,34083.8122413,-68
1643479898518,34083.8122445,-18
1643479898518,34083.8122478,163
1643479898518,34083.8122511,94
1643479898518,34083.8122543,-219
1643479898518,34083.8122576,-238
1643479898518,34084.3117523,238
1643479898518,34084.3117642,735
1643479898550,34084.3117682,938
1643479898550,34084.3117714,664
1643479898550,34084.3117747,-63
1643479898550,34084.3117778,-321
1643479898550,34084.311781,-2
1643479898550,34084.3117841,-37
1643479898550,34084.3117872,-200
1643479898550,34084.3117903,-18
1643479898550,34084.3117935,21
1643479898550,34084.3117966,-118
1643479898579,34084.3117997,-49
1643479898579,34084.3118029,-14
1643479898579,34084.311806,-148
1643479898579,34084.3118091,-106
1643479898579,34084.3118123,33
1643479898579,34084.3118328,-4
1643479898579,34084.3118374,0
1643479898579,34084.3118406,115
1643479898579,34084.3118438,2
1643479898579,34084.3118471,-172
1643479898612,34084.3118502,-66
1643479898612,34084.3118534,37
1643479898612,34084.3118565,-16
1643479898612,34084.3118597,-11
1643479898612,34084.3118628,82
1643479898612,34084.3118661,127
1643479898612,34084.3118692,66
1643479898612,34084.3118723,23
1643479898612,34084.3118754,70
1643479898612,34084.3118785,87
1643479898647,34084.3118816,11
1643479898647,34084.3118847,-59
1643479898647,34084.3118879,-40
1643479898647,34084.311891,14
1643479898647,34084.3118941,-37
1643479898647,34084.3118972,-184
1643479898647,34084.3119004,-205
1643479898647,34084.3119035,-59
1643479898647,34084.3119066,-56
1643479898647,34084.3119097,-215
1643479898679,34084.3119341,-134
1643479898679,34084.3119474,-23
1643479898679,34084.3119518,-160
1643479898679,34084.3119553,-167
1643479898679,34084.3119585,-47
1643479898679,34084.3119618,-80
1643479898679,34084.3119649,-130
1643479898679,34084.311968,-132
1643479898679,34084.3119712,-115
1643479898679,34084.3119744,-16
1643479898715,34084.3119777,26
1643479898715,34084.3119808,-101
1643479898715,34084.3119839,-151
1643479898715,34084.3119871,-23
1643479898979,34084.3119904,28
1643479898979,34084.3119935,-82
1643479898979,34084.3119967,-144
1643479898979,34084.3119998,-56
1643479898979,34084.3120029,-18
1643479898979,34084.3120067,-59
1643479898979,34084.3120098,-52
1643479898979,34084.3120129,-78
1643479898979,34084.3120164,-118
1643479898979,34084.3120198,-59
1643479899013,34084.312023,18
1643479899013,34084.312065,49
1643479899013,34084.3120807,-11
1643479899013,34084.3120853,-170
1643479899013,34084.3120889,-200
1643479899013,34084.3120921,-99
1643479899013,34084.3120953,-59
1643479899013,34084.8138846,-35
1643479899013,34084.8138996,-4
1643479899013,34084.8139035,-14
1643479899034,34084.8139068,-47
1643479899034,34084.8139291,-99
1643479899034,34084.8139411,-59
1643479899034,34084.8139479,222
1643479899034,34084.8139512,685
1643479899034,34084.8139545,822
1643479899034,34084.8139606,238
1643479899034,34084.8139649,-300
1643479899034,34084.8139709,-144
1643479899034,34084.8139741,23
1643479899056,34084.8139792,-134
1643479899056,34084.8139824,-134
1643479899056,34084.8139875,-42
1643479899056,34084.8139906,-118
1643479899056,34084.8139958,-137
1643479899056,34084.813999,-47
1643479899056,34084.814004,-33
1643479899056,34084.8140071,-52
1643479899056,34084.8140122,-70
1643479899056,34084.8140154,-23
1643479899079,34084.8140207,37
1643479899079,34084.8140239,-80
1643479899079,34084.8140289,-99
1643479899079,34084.8140321,82
1643479899079,34084.8140371,33
1643479899079,34084.8140403,-61
1643479899079,34084.8140454,87
1643479899079,34084.8140486,99
1643479899079,34084.8140536,-21
1643479899079,34084.8140568,75
1643479899101,34084.8140619,160
1643479899101,34084.8140651,75
1643479899101,34084.8140702,44
1643479899101,34084.8140734,108
1643479899101,34084.8140786,108
1643479899101,34084.8140818,37
1643479899101,34084.8140872,-14
1643479899101,34084.8140905,-40
1643479899101,34084.8140955,28
1643479899101,34084.8140988,82
1643479899123,34084.8141045,-61
1643479899123,34084.8141077,-132
1643479899123,34084.8141129,-4
1643479899123,34084.8141161,-18
1643479899123,34084.8141211,-106
1643479899123,34084.8141245,0
1643479899123,34084.8141709,59
1643479899123,34084.8141749,-56
1643479899123,34084.8141807,-113
1643479899123,34084.814184,-35
1643479899146,34084.814189,78
1643479899146,34084.8141923,40
1643479899146,34084.8141976,-63
1643479899146,34084.8142008,-35
1643479899619,34084.8142059,-26
1643479899619,34084.814209,-54
1643479899619,34084.814212,11
1643479899619,34084.814215,61
1643479899619,34084.8142179,68
1643479899619,34084.8142208,23
1643479899619,34084.8142237,-73
1643479899619,34084.8142266,-2
1643479899619,34084.8142296,177
1643479899619,34084.8142327,113
1643479899639,34084.8142356,-44
1643479899639,34084.8142385,-37
1643479899639,34084.8142414,-21
1643479899639,34084.8142443,-44
1643479899639,34084.8142472,47
1643479899639,34084.8142501,113
1643479899639,34085.4584859,42
1643479899639,34085.4585073,-47
1643479899639,34085.4585126,-40
1643479899639,34085.4585162,63
1643479899671,34085.4585199,70
1643479899671,34085.4585232,33
1643479899671,34085.4585264,26
1643479899671,34085.45853,-118
1643479899671,34085.4586321,-167
1643479899671,34085.4586427,14
1643479899671,34085.4586469,-9
1643479899671,34085.458699,-106
1643479899671,34085.4587038,260
1643479899671,34085.4587071,716
1643479899705,34085.4587203,782
1643479899705,34085.4587255,399
1643479899705,34085.4587289,-193
1643479899705,34085.4587321,-321
1643479899705,34085.4587354,-30
1643479899705,34085.4587386,33
1643479899705,34085.4587417,-66
1643479899705,34085.4587449,-42
1643479899705,34085.458748,-11
1643479899705,34085.4587512,-59
1643479899735,34085.4587544,-122
1643479899735,34085.4587575,-104
1643479899735,34085.4587607,-23
1643479899735,34085.4587639,23
1643479899735,34085.458767,54
1643479899735,34085.4587702,2
1643479899735,34085.4587735,-94
1643479899735,34085.4587766,-40
1643479899735,34085.4587797,92
1643479899735,34085.458783,47
1643479899766,34085.4587879,-85
1643479899766,34085.458791,-2
1643479899766,34085.4588103,158
1643479899766,34085.4588148,208
1643479899766,34085.4588182,210
1643479899766,34085.4588214,99
1643479899766,34085.4597201,-2
1643479899766,34085.4597366,80
1643479899766,34085.4597409,127
1643479899766,34085.4597452,115
1643479899799,34085.4597484,203
1643479899799,34085.4597516,196
1643479899799,34085.4597549,49
1643479899799,34085.4597581,37
1643479899799,34085.4597614,125
1643479899799,34085.4597646,89
1643479899799,34085.4597679,-59
1643479899799,34085.4598035,-163
1643479899799,34085.4598623,-108
1643479899799,34085.4598697,66
1643479899832,34085.4598735,115
1643479899832,34085.4598768,-40
1643479899832,34085.4598802,-87
1643479899832,34085.4598834,82
1643479900199,34085.4598867,104
1643479900199,34085.4599131,-66
1643479900199,34085.4599266,-66
1643479900199,34085.4599302,52
1643479900199,34085.4599334,63
1643479900199,34085.4599366,54
1643479900199,34085.4599398,125
1643479900199,34085.4599431,146
1643479900199,34085.4599465,0
1643479900199,34085.4599497,-21
1643479900232,34085.4599531,245
1643479900232,34085.4599563,314
1643479900232,34085.4599601,89
1643479900232,34085.4599633,-23
1643479900232,34085.4599666,-30
1643479900232,34086.0105537,2
1643479900232,34086.0105663,111
1643479900232,34086.01057,234
1643479900232,34086.0105732,250
1643479900232,34086.0105776,87
1643479900266,34086.0105808,-66
1643479900266,34086.0105839,28
1643479900266,34086.010587,160
1643479900266,34086.0105902,144
1643479900266,34086.0105933,104
1643479900266,34086.0105964,40
1643479900266,34086.0105995,85
1643479900266,34086.0106026,186
1643479900266,34086.0106329,89
1643479900266,34086.0106436,42
1643479900299,34086.0106473,151
1643479900299,34086.010662,229
1643479900299,34086.0106656,543
1643479900299,34086.0106687,1078
1643479900299,34086.0106717,893
1643479900299,34086.0106748,33
1643479900299,34086.0106779,-151
1643479900299,34086.0106809,210
1643479900299,34086.0106897,177
1643479900299,34086.0107053,7
1643479900334,34086.0107089,-14
1643479900334,34086.0107126,26
1643479900334,34086.0107156,153
1643479900334,34086.0107189,184
1643479900334,34086.0107221,37
1643479900334,34086.0107252,18
1643479900334,34086.0107282,198
1643479900334,34086.0107313,182
1643479900334,34086.0107343,-66
1643479900334,34086.0107375,-42
1643479900371,34086.0107405,179
1643479900371,34086.0107439,153
1643479900371,34086.0107469,59
1643479900371,34086.0107501,130
1643479900371,34086.0107533,182
1643479900371,34086.0107773,139
1643479900371,34086.0107873,177
1643479900371,34086.0107914,316
1643479900371,34086.0107948,276
1643479900371,34086.0107981,118
1643479900399,34086.0108013,153
1643479900399,34086.0108045,231
1643479900399,34086.0108077,146
1643479900399,34086.0108108,92
1643479900399,34086.010815,163
1643479900399,34086.0108182,139
1643479900399,34086.0108213,11
1643479900399,34086.010831,4
1643479900399,34086.0108341,70
1643479900399,34086.0108372,37
1643479900422,34086.0108421,-44
1643479900422,34086.0108452,-14
1643479900422,34086.0108484,52
1643479900422,34086.0108515,21
1643479900785,34086.0108546,-75
1643479900785,34086.0108578,-146
1643479900785,34086.0108607,-73
1643479900785,34086.0108638,40
1643479900785,34086.0108668,21
1643479900785,34086.0108698,16
1643479900785,34086.0108728,42
1643479900785,34086.0108762,-63
1643479900785,34086.0108792,-106
1643479900785,34086.0108823,-4
1643479900810,34086.0108853,54
1643479900810,34086.0108884,37
1643479900810,34086.0108914,-37
1643479900810,34086.0108944,-11
1643479900810,34086.6087792,70
1643479900810,34086.6087924,0
1643479900810,34086.6087964,-82
1643479900810,34086.6088017,-37
1643479900810,34086.6088048,87
1643479900810,34086.6088091,120
1643479900829,34086.6088122,-23
1643479900829,34086.608816,-61
1643479900829,34086.6088191,2
1643479900829,34086.6088233,-9
1643479900829,34086.6088264,37
1643479900829,34086.6088295,66
1643479900829,34086.6088345,-52
1643479900829,34086.6088375,-106
1643479900829,34086.6088406,-59
1643479900829,34086.6088449,-80
1643479900848,34086.608848,-115
1643479900848,34086.6088522,-18
1643479900848,34086.6088577,111
1643479900848,34086.6088619,54
1643479900848,34086.6088651,106
1643479900848,34086.6088683,664
1643479900848,34086.6088726,1127
1643479900848,34086.6088757,602
1643479900848,34086.6088798,-264
1643479900848,34086.6088839,-349
1643479900870,34086.6088871,-40
1643479900870,34086.6088923,-4
1643479900870,34086.6088965,-94
1643479900870,34086.6088997,-156
1643479900870,34086.6089026,-182
1643479900870,34086.6089056,-70
1643479900870,34086.6089084,89
1643479900870,34086.6089113,-21
1643479900870,34086.6089141,-196
1643479900870,34086.6089169,-73
1643479900889,34086.6089197,4
1643479900889,34086.6089226,-108
1643479900889,34086.6089254,-59
1643479900889,34086.6089282,16
1643479900889,34086.608931,-144
1643479900889,34086.6089339,-210
1643479900889,34086.6089367,9
1643479900889,34086.6089395,146
1643479900889,34086.6089424,70
1643479900889,34086.608947,-40
1643479900911,34086.6089514,-14
1643479900911,34086.6089546,96
1643479900911,34086.6089591,99
1643479900911,34086.6089623,18
1643479900911,34086.6089651,-7
1643479900911,34086.608968,73
1643479900911,34086.6089711,137
1643479900911,34086.6089742,49
1643479900911,34086.6089782,-21
1643479900911,34086.6089814,-18
1643479900933,34086.6089855,-104
1643479900933,34086.6089906,-156
1643479900933,34086.6089946,-18
1643479900933,34086.6089995,7
1643479901582,34086.6090043,-196
1643479901582,34086.6090073,-255
1643479901582,34086.6090102,-108
1643479901582,34086.6090132,-59
1643479901582,34086.609016,-130
1643479901582,34086.6090189,-87
1643479901582,34086.6090219,40
1643479901582,34086.6090247,-49
1643479901582,34086.6090277,-210
1643479901582,34086.6090307,-99
1643479901604,34086.6090337,47
1643479901604,34086.6090366,18
1643479901604,34086.6090395,-66
1643479901604,34087.4111018,-127
1643479901604,34087.4111147,-47
1643479901604,34087.4111187,80
1643479901604,34087.411122,35
1643479901604,34087.4111253,-73
1643479901604,34087.4111285,-94
1643479901604,34087.4111317,-54
1643479901627,34087.411135,0
1643479901627,34087.4111386,11
1643479901627,34087.4111417,-9
1643479901627,34087.4111449,-9
1643479901627,34087.4111481,2
1643479901627,34087.4111513,-28
1643479901627,34087.4111544,-89
1643479901627,34087.4111576,-108
1643479901627,34087.4111608,-49
1643479901627,34087.411164,-21
1643479901648,34087.4111672,-73
1643479901648,34087.4111703,-92
1643479901648,34087.4111735,-21
1643479901648,34087.4111766,-49
1643479901648,34087.4111797,-184
1643479901648,34087.4111828,-82
1643479901648,34087.4111859,349
1643479901648,34087.411189,817
1643479901648,34087.4111922,862
1643479901648,34087.4111954,193
1643479901667,34087.4111986,-366
1643479901667,34087.4112017,-160
1643479901667,34087.4112048,-23
1643479901667,34087.4112079,-243
1643479901667,34087.411211,-241
1643479901667,34087.4112142,-11
1643479901667,34087.4112174,54
1643479901667,34087.4112205,-54
1643479901667,34087.4112236,-89
1643479901667,34087.4112268,-137
1643479901690,34087.4112299,-210
1643479901690,34087.411233,-113
1643479901690,34087.4112362,23
1643479901690,34087.4112393,-2
1643479901690,34087.4112424,-94
1643479901690,34087.4112455,-106
1643479901690,34087.4112486,-66
1643479901690,34087.4112518,4
1643479901690,34087.4112549,35
1643479901690,34087.4112581,-2
1643479901718,34087.4112614,0
1643479901718,34087.4112646,42
1643479901718,34087.4112678,75
1643479901718,34087.4112709,78
1643479901718,34087.4112744,-2
1643479901718,34087.4112775,-42
1643479901718,34087.4112807,177
1643479901718,34087.4112838,326
1643479901718,34087.4112869,75
1643479901718,34087.4112905,-82
1643479901737,34087.4112936,66
1643479901737,34087.4112969,47
1643479901737,34087.4113,-89
1643479901737,34087.4113031,-66
1643479901890,34087.4113063,-40
1643479901890,34087.4113095,-80
1643479901890,34087.4113163,4
1643479901890,34087.4113199,120
1643479901890,34087.4113435,30
1643479901890,34087.4113604,-94
1643479901890,34087.4113739,-101
1643479901890,34087.4113781,-111
1643479901890,34087.4113815,-28
1643479901890,34087.4113849,144
1643479901914,34087.411388,113
1643479901914,34087.4113913,-59
1643479901914,34087.7148898,-66
1643479901914,34087.7149033,56
1643479901914,34087.7149075,80
1643479901914,34087.7149107,-23
1643479901914,34087.7149137,-35
1643479901914,34087.7149168,63
1643479901914,34087.7149198,16
1643479901914,34087.7149229,-96
1643479901934,34087.7149258,-23
1643479901934,34087.7149289,75
1643479901934,34087.7149319,54
1643479901934,34087.7149349,-21
1643479901934,34087.7149379,-87
1643479901934,34087.7149409,-23
1643479901934,34087.7149439,40
1643479901934,34087.7149469,-52
1643479901934,34087.7149498,-63
1643479901934,34087.7149528,47
1643479901958,34087.7149558,42
1643479901958,34087.7149588,-47
1643479901958,34087.7149617,7
1643479901958,34087.7149648,80
1643479901958,34087.7149678,-2
1643479901958,34087.7149707,-35
1643479901958,34087.7149737,-2
1643479901958,34087.7149768,-56
1643479901958,34087.7149807,-96
1643479901958,34087.7149841,-35
1643479901979,34087.7149908,42
1643479901979,34087.7149944,141
1643479901979,34087.7149995,375
1643479901979,34087.7150027,704
1643479901979,34087.7150077,758
1643479901979,34087.7150109,288
1643479901979,34087.7150159,-191
1643479901979,34087.7150191,-134
1643479901979,34087.7150241,49
1643479901979,34087.7150274,-54
1643479902002,34087.7150325,-167
1643479902002,34087.7150357,-115
1643479902002,34087.7150408,-144
1643479902002,34087.715044,-203
1643479902002,34087.7150489,-59
1643479902002,34087.7150522,63
1643479902002,34087.7150575,11
1643479902002,34087.7150608,-33
1643479902002,34087.7150658,-82
1643479902002,34087.715069,-182
1643479902024,34087.7150741,-115
