unixTime,lslTime,ECG
1643457797716,11983.0180242,7
1643457797716,11983.0180271,14
1643457797716,11983.6673109,21
1643457797716,11983.6673248,35
1643457797716,11983.667331,44
1643457797716,11983.6673362,47
1643457797716,11983.6673401,59
1643457797716,11983.6673452,82
1643457797716,11983.6673503,94
1643457797716,11983.6673551,106
1643457797746,11983.6673583,115
1643457797746,11983.667364,94
1643457797746,11983.667367,78
1643457797746,11983.6673701,85
1643457797746,11983.6673751,87
1643457797746,11983.6673781,70
1643457797746,11983.6673813,47
1643457797746,11983.667411,16
1643457797746,11983.6674179,-18
1643457797746,11983.6674216,-42
1643457797779,11983.6674365,-56
1643457797779,11983.6674422,-68
1643457797779,11983.6674452,-75
1643457797779,11983.6674482,-80
1643457797779,11983.6674512,-80
1643457797779,11983.6674544,-70
1643457797779,11983.6674574,-63
1643457797779,11983.6674616,-59
1643457797779,11983.6674648,-49
1643457797779,11983.6674678,-47
1643457797815,11983.667471,-42
1643457797815,11983.6674753,-35
1643457797815,11983.6674805,-28
1643457797815,11983.6674836,-21
1643457797815,11983.667487,-18
1643457797815,11983.6674921,-16
1643457797815,11983.6674953,-14
1643457797815,11983.6675001,-14
1643457797815,11983.6675042,-14
1643457797815,11983.6675078,-16
1643457797846,11983.6675118,-16
1643457797846,11983.6675151,-16
1643457797846,11983.6675196,-16
1643457797846,11983.6675246,-23
1643457797846,11983.6675278,-28
1643457797846,11983.667531,-33
1643457797846,11983.6675361,-35
1643457797846,11983.6675409,-35
1643457797846,11983.6675457,-28
1643457797846,11983.6675487,-26
1643457797886,11983.6675519,-26
1643457797886,11983.6675567,-23
1643457797886,11983.6675607,-18
1643457797886,11983.6675656,-23
1643457797886,11983.6675689,-35
1643457797886,11983.6675737,-40
1643457797886,11983.667577,-26
1643457797886,11983.6675817,-11
1643457797886,11983.6675849,-14
1643457797886,11983.6675901,-16
1643457797922,11983.6675941,-14
1643457797922,11983.6675987,-21
1643457797922,11983.6676034,-23
1643457797922,11983.6676085,-18
1643457797922,11983.6676124,-21
1643457797922,11983.6676172,-23
1643457797922,11983.6676203,-14
1643457797922,11983.6676237,-9
1643457797922,11983.6676285,-18
1643457797922,11983.6676317,-59
1643457797962,11983.6676379,-108
1643457797962,11983.6676411,-47
1643457797962,11983.6676461,222
1643457797962,11983.6676503,541
1643457798347,11983.6676551,624
1643457798347,11984.3173814,293
1643457798347,11984.3173952,-148
1643457798347,11984.3173989,-177
1643457798347,11984.317404,-21
1643457798347,11984.3174071,-56
1643457798347,11984.31741,-85
1643457798347,11984.3174128,-35
1643457798347,11984.3174156,-35
1643457798347,11984.3174184,-59
1643457798379,11984.3174212,-37
1643457798379,11984.317424,-21
1643457798379,11984.3174269,-23
1643457798379,11984.3174297,-16
1643457798379,11984.3174326,-18
1643457798379,11984.3174354,-44
1643457798379,11984.3174382,-54
1643457798379,11984.3174412,-33
1643457798379,11984.317444,-28
1643457798379,11984.3174469,-26
1643457798413,11984.3174501,-9
1643457798413,11984.317455,-2
1643457798413,11984.3174578,2
1643457798413,11984.3174606,18
1643457798413,11984.3174635,35
1643457798413,11984.3174664,49
1643457798413,11984.3174692,66
1643457798413,11984.3174721,78
1643457798413,11984.317475,82
1643457798413,11984.3174784,92
1643457798447,11984.317483,101
1643457798447,11984.3174858,106
1643457798447,11984.3174886,104
1643457798447,11984.3174915,99
1643457798447,11984.3174944,82
1643457798447,11984.3174972,49
1643457798447,11984.3175,9
1643457798447,11984.3175029,-18
1643457798447,11984.3175059,-42
1643457798447,11984.3175088,-61
1643457798480,11984.3175116,-68
1643457798480,11984.3175144,-70
1643457798480,11984.3175172,-70
1643457798480,11984.31752,-68
1643457798480,11984.3175228,-61
1643457798480,11984.3175257,-54
1643457798480,11984.3175285,-44
1643457798480,11984.3175315,-42
1643457798480,11984.3175364,-44
1643457798480,11984.3175405,-40
1643457798513,11984.3175445,-33
1643457798513,11984.3175474,-28
1643457798513,11984.3175504,-26
1643457798513,11984.3175532,-23
1643457798513,11984.3175561,-21
1643457798513,11984.3175591,-18
1643457798513,11984.317562,-16
1643457798513,11984.3175648,-18
1643457798513,11984.3175677,-14
1643457798513,11984.3175706,-9
1643457798548,11984.3175755,-11
1643457798548,11984.3175799,-14
1643457798548,11984.3175847,-14
1643457798548,11984.317589,-14
1643457798548,11984.3175938,-18
1643457798548,11984.3175966,-18
1643457798548,11984.3175995,-18
1643457798548,11984.3176035,-28
1643457798548,11984.3176065,-35
1643457798548,11984.3176093,-30
1643457798581,11984.3176127,-23
1643457798581,11984.3176173,-23
1643457798581,11984.31762,-23
1643457798581,11984.3176229,-30
1643457799307,11984.7199681,-35
1643457799307,11984.7200393,-33
1643457799307,11984.7200537,-26
1643457799307,11984.7200577,-9
1643457799307,11984.7200611,0
1643457799307,11984.7200672,-2
1643457799307,11984.7200703,-2
1643457799307,11984.7200735,-7
1643457799307,11984.7200762,-14
1643457799307,11984.720079,-14
1643457799334,11984.7200832,-7
1643457799334,11984.7200864,-4
1643457799334,11984.7200914,-2
1643457799334,11984.7200945,-2
1643457799334,11984.7200993,-4
1643457799334,11984.7201024,-33
1643457799334,11984.720107,-85
1643457799334,11984.7201102,-61
1643457799334,11984.7201143,153
1643457799334,11984.7201172,458
1643457799359,11984.72012,612
1643457799359,11984.7201228,385
1643457799359,11984.7201256,-73
1643457799359,11984.7201289,-200
1643457799359,11984.7201318,-35
1643457799359,11984.7201348,-33
1643457799359,11984.7201377,-99
1643457799359,11984.7201407,-66
1643457799359,11984.7201441,-44
1643457799359,11984.7201472,-59
1643457799385,11984.7201511,-47
1643457799385,11984.7201541,-42
1643457799385,11984.7201584,-59
1643457799385,11984.7201614,-56
1643457799385,11984.7201644,-37
1643457799385,11984.7201672,-33
1643457799385,11984.7201703,-30
1643457799385,11984.720175,-23
1643457799385,11984.7201779,-21
1643457799385,11984.7201808,-16
1643457799414,11984.7201839,-4
1643457799414,11984.7201888,4
1643457799414,11984.7201917,14
1643457799414,11984.7201965,26
1643457799414,11984.7202012,42
1643457799414,11984.7202059,54
1643457799414,11984.7202104,63
1643457799414,11984.7202134,82
1643457799414,11984.7202187,99
1643457799414,11984.7202231,106
1643457799440,11984.7202279,111
1643457799440,11984.7202309,115
1643457799440,11984.7202338,118
1643457799440,11984.7202368,113
1643457799440,11984.7202396,101
1643457799440,11984.7202426,80
1643457799440,11984.7202457,52
1643457799440,11984.7202509,18
1643457799440,11984.7202539,-18
1643457799440,11984.7202587,-42
1643457799466,11984.7202617,-54
1643457799466,11984.7202648,-61
1643457799466,11984.7202676,-63
1643457799466,11984.7202705,-59
1643457799466,11984.7202735,-54
1643457799466,11984.7202763,-52
1643457799466,11984.7202876,-44
1643457799466,11984.7202919,-40
1643457799466,11984.7202948,-33
1643457799466,11984.7202976,-23
1643457799490,11984.7203005,-18
1643457799490,11984.7203033,-23
1643457799490,11984.7203062,-26
1643457799490,11985.2708592,-18
1643457799869,11985.2708729,-16
1643457799869,11985.2708764,-21
1643457799869,11985.2708793,-23
1643457799869,11985.2708822,-26
1643457799869,11985.2708851,-30
1643457799869,11985.270888,-33
1643457799869,11985.2708908,-33
1643457799869,11985.2708937,-28
1643457799869,11985.2708965,-26
1643457799869,11985.2708993,-35
1643457799900,11985.2709021,-59
1643457799900,11985.2709052,-66
1643457799900,11985.2709081,-56
1643457799900,11985.2709109,-52
1643457799900,11985.2709137,-52
1643457799900,11985.2709174,-49
1643457799900,11985.2709205,-63
1643457799900,11985.2709234,-92
1643457799900,11985.2709264,-94
1643457799900,11985.2709293,-80
1643457799935,11985.2709324,-78
1643457799935,11985.2709353,-85
1643457799935,11985.2709406,-82
1643457799935,11985.2709435,-66
1643457799935,11985.2709477,-44
1643457799935,11985.2709508,-40
1643457799935,11985.2709537,-40
1643457799935,11985.2709567,-30
1643457799935,11985.2709596,-35
1643457799935,11985.2709626,-44
1643457799968,11985.2709656,-40
1643457799968,11985.2709686,-30
1643457799968,11985.2709716,-33
1643457799968,11985.2709766,-28
1643457799968,11985.2709796,-21
1643457799968,11985.2709826,-33
1643457799968,11985.2709904,-78
1643457799968,11985.2709935,-106
1643457799968,11985.2709988,7
1643457799968,11985.2710019,295
1643457800002,11985.2710073,560
1643457800002,11985.2710106,527
1643457800002,11985.2710153,141
1643457800002,11985.2710185,-186
1643457800002,11985.2710234,-120
1643457800002,11985.2710271,-7
1643457800002,11985.2710301,-63
1643457800002,11985.2710352,-73
1643457800002,11985.2710382,-30
1643457800002,11985.2710412,-37
1643457800035,11985.2710441,-49
1643457800035,11985.2710471,-33
1643457800035,11985.2710529,-23
1643457800035,11985.271056,-16
1643457800035,11985.2710608,-11
1643457800035,11985.2710638,-7
1643457800035,11985.2710668,-4
1643457800035,11985.2710699,4
1643457800035,11985.2710727,11
1643457800035,11985.2710756,14
1643457800069,11985.2710786,21
1643457800069,11985.2710816,30
1643457800069,11985.2710846,35
1643457800069,11985.2710873,44
1643457800069,11985.2710903,61
1643457800069,11985.2710931,75
1643457800069,11985.2710959,89
1643457800069,11985.2710987,101
1643457800069,11985.2711015,113
1643457800069,11985.2711043,130
1643457800103,11985.2711071,141
1643457800103,11985.2711099,141
1643457800103,11985.8206532,141
1643457800103,11985.8206663,132
1643457800362,11985.8206702,120
1643457800362,11985.8206734,106
1643457800362,11985.8206763,73
1643457800362,11985.8206793,30
1643457800362,11985.8206822,-2
1643457800362,11985.820685,-30
1643457800362,11985.8206887,-52
1643457800362,11985.8207087,-66
1643457800362,11985.8207443,-78
1643457800362,11985.8207526,-82
1643457800388,11985.8207579,-82
1643457800388,11985.8207627,-78
1643457800388,11985.820766,-68
1643457800388,11985.8207713,-70
1643457800388,11985.8207743,-89
1643457800388,11985.8207774,-99
1643457800388,11985.8207823,-87
1643457800388,11985.8207862,-78
1643457800388,11985.8207909,-80
1643457800388,11985.8207946,-75
1643457800416,11985.8207993,-70
1643457800416,11985.820803,-70
1643457800416,11985.8208076,-75
1643457800416,11985.8208113,-70
1643457800416,11985.8208161,-56
1643457800416,11985.8208192,-52
1643457800416,11985.8208232,-56
1643457800416,11985.8208263,-63
1643457800416,11985.820831,-59
1643457800416,11985.8208461,-49
1643457800444,11985.8208516,-49
1643457800444,11985.8208547,-49
1643457800444,11985.8208578,-44
1643457800444,11985.8208608,-44
1643457800444,11985.8208656,-47
1643457800444,11985.8208702,-40
1643457800444,11985.8208753,-35
1643457800444,11985.8208784,-44
1643457800444,11985.8208832,-49
1643457800444,11985.8208876,-42
1643457800470,11985.8208923,-33
1643457800470,11985.8208952,-30
1643457800470,11985.8208983,-21
1643457800470,11985.820903,-4
1643457800470,11985.8209077,-14
1643457800470,11985.8209124,-33
1643457800470,11985.820916,-23
1643457800470,11985.820919,-11
1643457800470,11985.8209238,-11
1643457800470,11985.8209269,-14
1643457800492,11985.8209316,-7
1643457800492,11985.8209362,-4
1643457800492,11985.8209408,-30
1643457800492,11985.8209455,-82
1643457800492,11985.82095,-54
1643457800492,11985.8209545,177
1643457800492,11985.8209592,489
1643457800492,11985.8209637,612
1643457800492,11985.8209683,356
1643457800492,11985.8211825,-70
1643457800516,11985.8211985,-167
1643457800516,11985.8212048,-18
1643457800516,11985.8212085,-16
1643457800516,11985.8212133,-59
1643457800516,11985.8212181,-18
1643457800516,11985.8212232,-9
1643457800516,11985.8212276,-35
1643457800516,11985.8212324,-23
1643457800516,11985.8212356,-2
1643457800516,11985.8212403,-7
1643457800542,11985.8212449,-9
1643457800542,11986.3221647,2
1643457800542,11986.322178,7
1643457800542,11986.3221833,9
1643457801069,11986.322188,23
1643457801069,11986.3221913,16
1643457801069,11986.3221943,2
1643457801069,11986.3221971,21
1643457801069,11986.3221999,33
1643457801069,11986.3222027,21
1643457801069,11986.3222055,35
1643457801069,11986.3222083,61
1643457801069,11986.3222111,73
1643457801069,11986.3222139,92
1643457801103,11986.3222171,111
1643457801103,11986.3222199,104
1643457801103,11986.3222234,94
1643457801103,11986.3222265,104
1643457801103,11986.3222295,115
1643457801103,11986.3222325,113
1643457801103,11986.3222379,106
1643457801103,11986.322241,85
1643457801103,11986.3222451,47
1643457801103,11986.3222482,14
1643457801135,11986.3222531,-18
1643457801135,11986.3222563,-47
1643457801135,11986.322261,-63
1643457801135,11986.3222639,-75
1643457801135,11986.322267,-82
1643457801135,11986.32227,-82
1643457801135,11986.3222729,-80
1643457801135,11986.322278,-80
1643457801135,11986.3222809,-78
1643457801135,11986.3222839,-66
1643457801170,11986.3222891,-56
1643457801170,11986.3222923,-63
1643457801170,11986.3222971,-59
1643457801170,11986.3223019,-47
1643457801170,11986.3223067,-40
1643457801170,11986.3223111,-40
1643457801170,11986.3223158,-42
1643457801170,11986.3223187,-44
1643457801170,11986.3223217,-42
1643457801170,11986.3223247,-42
1643457801201,11986.3223296,-40
1643457801201,11986.3223328,-37
1643457801201,11986.3223377,-35
1643457801201,11986.3223423,-37
1643457801201,11986.3223471,-42
1643457801201,11986.322352,-37
1643457801201,11986.3223567,-30
1643457801201,11986.3223598,-28
1643457801201,11986.3223628,-28
1643457801201,11986.3223658,-35
1643457801234,11986.32237,-42
1643457801234,11986.3223731,-37
1643457801234,11986.3223783,-28
1643457801234,11986.3223828,-18
1643457801234,11986.3223876,-14
1643457801234,11986.3223913,-11
1643457801234,11986.3223943,-4
1643457801234,11986.3223972,-2
1643457801234,11986.3224002,-16
1643457801234,11986.3224042,-26
1643457801270,11986.3224073,-26
1643457801270,11986.322412,-23
1643457801270,11986.3224149,-18
1643457801270,11986.3224651,-14
1643457801270,11986.3224723,-9
1643457801270,11986.3224776,-16
1643457801270,11986.322481,-56
1643457801270,11986.3224858,-113
1643457801270,11986.3224889,-52
1643457801270,11986.3225045,229
1643457801303,11987.0223418,553
1643457801303,11987.0223524,633
1643457801303,11987.022356,302
1643457801303,11987.0223592,-146
1643457801601,11987.0223623,-174
1643457801601,11987.0223652,-14
1643457801601,11987.0223682,-70
1643457801601,11987.0223713,-132
1643457801601,11987.0223742,-80
1643457801601,11987.0223772,-66
1643457801601,11987.0223801,-85
1643457801601,11987.022383,-63
1643457801601,11987.0223859,-44
1643457801601,11987.0223888,-49
1643457801634,11987.0223917,-40
1643457801634,11987.0223946,-26
1643457801634,11987.0223975,-21
1643457801634,11987.0224004,-16
1643457801634,11987.0224033,-9
1643457801634,11987.0224062,-2
1643457801634,11987.0224091,4
1643457801634,11987.0224124,11
1643457801634,11987.0224152,16
1643457801634,11987.0224181,28
1643457801669,11987.022421,47
1643457801669,11987.0224239,59
1643457801669,11987.0224268,70
1643457801669,11987.0224296,85
1643457801669,11987.0224325,101
1643457801669,11987.0224354,118
1643457801669,11987.0224383,125
1643457801669,11987.0224422,127
1643457801669,11987.0224454,130
1643457801669,11987.0224519,122
1643457801693,11987.0224551,113
1643457801693,11987.0224601,101
1643457801693,11987.0224633,73
1643457801693,11987.0224681,35
1643457801693,11987.0224714,0
1643457801693,11987.0224762,-28
1643457801693,11987.0224794,-42
1643457801693,11987.0224843,-44
1643457801693,11987.0224875,-47
1643457801693,11987.0224922,-49
1643457801717,11987.0224985,-49
1643457801717,11987.0225039,-44
1643457801717,11987.0225072,-35
1643457801717,11987.0225105,-28
1643457801717,11987.0225194,-26
1643457801717,11987.0225238,-18
1643457801717,11987.0225268,-11
1643457801717,11987.0225297,-9
1643457801717,11987.0225326,-7
1643457801717,11987.0225356,-11
1643457801754,11987.0225408,-18
1643457801754,11987.0225439,-18
1643457801754,11987.0225488,-21
1643457801754,11987.0225519,-26
1643457801754,11987.0225571,-26
1643457801754,11987.0225605,-23
1643457801754,11987.0225654,-21
1643457801754,11987.0225831,-21
1643457801754,11987.0225864,-28
1643457801754,11987.0225893,-40
1643457801780,11987.0225921,-44
1643457801780,11987.022595,-35
1643457801780,11987.0225979,-30
1643457801780,11987.0226007,-33
1643457801780,11987.0226036,-37
1643457801780,11987.0226068,-37
1643457801780,11987.0235011,-33
1643457801780,11987.023508,-21
1643457801780,11987.0235122,-11
1643457801780,11987.5664823,-2
1643457801806,11987.5664943,4
1643457801806,11987.566503,2
1643457801806,11987.5665318,-9
1643457801806,11987.5665401,-14
1643457802061,11987.5665438,-9
1643457802061,11987.5665469,-7
1643457802061,11987.5665497,-7
1643457802061,11987.5665525,-2
1643457802061,11987.5665553,2
1643457802061,11987.5665581,-4
1643457802061,11987.5665609,-47
1643457802061,11987.5665638,-92
1643457802061,11987.5665664,-11
1643457802061,11987.5665693,267
1643457802087,11987.566572,567
1643457802087,11987.5665748,591
1643457802087,11987.5665776,222
1643457802087,11987.5665803,-163
1643457802087,11987.566583,-130
1643457802087,11987.5665858,4
1643457802087,11987.5665885,-42
1643457802087,11987.5665913,-56
1643457802087,11987.5668345,-11
1643457802087,11987.5668428,-40
1643457802113,11987.5668465,-80
1643457802113,11987.5668496,-61
1643457802113,11987.5668524,-37
1643457802113,11987.5668553,-42
1643457802113,11987.566858,-35
1643457802113,11987.5668607,-23
1643457802113,11987.5668635,-23
1643457802113,11987.5668662,-18
1643457802113,11987.566869,-4
1643457802113,11987.5668719,4
1643457802138,11987.5668747,9
1643457802138,11987.5668775,18
1643457802138,11987.5668803,28
1643457802138,11987.5668831,33
1643457802138,11987.5668858,44
1643457802138,11987.5668886,56
1643457802138,11987.5668913,73
1643457802138,11987.5668941,96
1643457802138,11987.5668968,118
1643457802138,11987.5668995,118
1643457802163,11987.5669023,118
1643457802163,11987.5669055,125
1643457802163,11987.5669082,122
1643457802163,11987.566911,118
1643457802163,11987.5669137,113
1643457802163,11987.5669165,96
1643457802163,11987.5669192,66
1643457802163,11987.566922,33
1643457802163,11987.5669247,4
1643457802163,11987.5669275,-14
1643457802191,11987.5669303,-33
1643457802191,11987.5669331,-56
1643457802191,11987.5669359,-68
1643457802191,11987.5669387,-66
1643457802191,11987.5669421,-61
1643457802191,11987.5669448,-56
1643457802191,11987.5669476,-49
1643457802191,11987.5669503,-40
1643457802191,11987.566953,-35
1643457802191,11987.5669557,-35
1643457802216,11987.5669585,-30
1643457802216,11987.5669612,-23
1643457802216,11987.566964,-18
1643457802216,11987.5669668,-18
1643457802216,11987.5669695,-16
1643457802216,11987.5669723,-11
1643457802216,11987.5669752,-7
1643457802216,11987.5669783,-9
1643457802216,11988.0233971,-21
1643457802216,11988.0234098,-28
1643457802241,11988.0234136,-26
1643457802241,11988.0234171,-26
1643457802241,11988.0234215,-30
1643457802241,11988.0234257,-30
1643457802603,11988.023429,-28
1643457802603,11988.0234321,-30
1643457802603,11988.023435,-33
1643457802603,11988.023438,-33
1643457802603,11988.023441,-40
1643457802603,11988.023444,-44
1643457802603,11988.0234469,-47
1643457802603,11988.02345,-44
1643457802603,11988.0234529,-33
1643457802603,11988.0234559,-23
1643457802634,11988.0234588,-35
1643457802634,11988.0234618,-44
1643457802634,11988.0234647,-37
1643457802634,11988.0234676,-47
1643457802634,11988.0234706,-63
1643457802634,11988.0234736,-52
1643457802634,11988.0234766,-37
1643457802634,11988.0234797,-42
1643457802634,11988.0234851,-44
1643457802634,11988.0234882,-37
1643457802667,11988.0234914,-44
1643457802667,11988.0234992,-85
1643457802667,11988.0235028,-120
1643457802667,11988.0235236,-4
1643457802667,11988.0235276,297
1643457802667,11988.0235306,565
1643457802667,11988.0235336,515
1643457802667,11988.0235366,118
1643457802667,11988.0235395,-203
1643457802667,11988.0235425,-137
1643457802702,11988.0235454,-30
1643457802702,11988.0235483,-80
1643457802702,11988.0235513,-78
1643457802702,11988.0235541,-35
1643457802702,11988.0235571,-40
1643457802702,11988.0235599,-44
1643457802702,11988.0235629,-30
1643457802702,11988.0235658,-33
1643457802702,11988.0235687,-30
1643457802702,11988.0235716,-11
1643457802736,11988.0235746,-4
1643457802736,11988.0235775,-2
1643457802736,11988.0235804,-9
1643457802736,11988.0235833,-14
1643457802736,11988.0235863,0
1643457802736,11988.0235892,14
1643457802736,11988.0235922,18
1643457802736,11988.0235952,30
1643457802736,11988.0235981,47
1643457802736,11988.023601,54
1643457802768,11988.023604,66
1643457802768,11988.0236073,87
1643457802768,11988.0236103,106
1643457802768,11988.0236133,118
1643457802768,11988.0236162,125
1643457802768,11988.0236192,127
1643457802768,11988.0236221,132
1643457802768,11988.023625,134
1643457802768,11988.0236279,125
1643457802768,11988.023631,115
1643457802804,11988.0236339,94
1643457802804,11988.0236369,52
1643457802804,11988.0236398,11
1643457802804,11988.0236428,-11
1643457802804,11988.0236458,-28
1643457802804,11988.0236488,-42
1643457802804,11988.0236518,-52
1643457802804,11988.5743823,-54
1643457802804,11988.5743963,-54
1643457802804,11988.5743999,-54
1643457802835,11988.5744032,-47
1643457802835,11988.5744074,-37
1643457802835,11988.5744127,-35
1643457802835,11988.5744159,-37
1643457803255,11988.5744206,-33
1643457803255,11988.5744236,-49
1643457803255,11988.5744266,-80
1643457803255,11988.5744295,-80
1643457803255,11988.5744322,-61
1643457803255,11988.5744351,-61
1643457803255,11988.5744378,-59
1643457803255,11988.5744409,-49
1643457803255,11988.5744438,-54
1643457803255,11988.5744466,-52
1643457803281,11988.5744494,-42
1643457803281,11988.5744522,-44
1643457803281,11988.574455,-47
1643457803281,11988.5744579,-44
1643457803281,11988.5744607,-52
1643457803281,11988.5744635,-54
1643457803281,11988.5744663,-52
1643457803281,11988.5744691,-54
1643457803281,11988.5744721,-52
1643457803281,11988.574475,-54
1643457803308,11988.5744803,-61
1643457803308,11988.5744832,-56
1643457803308,11988.5744863,-40
1643457803308,11988.5744892,-35
1643457803308,11988.5744922,-28
1643457803308,11988.5744978,-18
1643457803308,11988.5745033,-28
1643457803308,11988.5745063,-44
1643457803308,11988.5745094,-44
1643457803308,11988.5745121,-35
1643457803336,11988.5745342,-30
1643457803336,11988.574543,-28
1643457803336,11988.5745467,-28
1643457803336,11988.5745498,-37
1643457803336,11988.5745833,-75
1643457803336,11988.5745865,-125
1643457803336,11988.5745892,-82
1643457803336,11988.574592,167
1643457803336,11988.5745949,498
1643457803336,11988.5745976,619
1643457803362,11988.5746003,326
1643457803362,11988.5746032,-137
1643457803362,11988.5746059,-212
1643457803362,11988.5746086,-37
1643457803362,11988.5746114,-44
1643457803362,11988.5746142,-89
1643457803362,11988.5746172,-44
1643457803362,11988.57462,-33
1643457803362,11988.5746228,-47
1643457803362,11988.5746255,-33
1643457803388,11988.5746283,-26
1643457803388,11988.5746311,-28
1643457803388,11988.5746338,-23
1643457803388,11988.5746366,-18
1643457803388,11988.5746394,-14
1643457803388,11988.5746421,0
1643457803388,11988.5746449,7
1643457803388,11988.5746476,7
1643457803388,11988.5746504,14
1643457803388,11988.5746532,26
1643457803414,11988.574685,30
1643457803414,11988.5746899,40
1643457803414,11988.5746927,56
1643457803414,11988.5746958,73
1643457803414,11988.5746989,82
1643457803414,11988.574703,96
1643457803414,11989.2211554,111
1643457803414,11989.2211669,125
1643457803414,11989.2211705,134
1643457803414,11989.2211734,139
1643457803439,11989.2211763,139
1643457803439,11989.2211793,137
1643457803439,11989.2211821,115
1643457803439,11989.2211851,63
1643457803694,11989.221188,14
1643457803694,11989.221191,-9
1643457803694,11989.2211938,-28
1643457803694,11989.2211967,-52
1643457803694,11989.2211996,-63
1643457803694,11989.2212025,-70
1643457803694,11989.2212054,-75
1643457803694,11989.2212083,-73
1643457803694,11989.2212111,-68
1643457803694,11989.221214,-68
1643457803720,11989.2212173,-63
1643457803720,11989.2212202,-52
1643457803720,11989.221223,-47
1643457803720,11989.2212259,-40
1643457803720,11989.2212288,-28
1643457803720,11989.2212317,-26
1643457803720,11989.221235,-21
1643457803720,11989.2212379,-9
1643457803720,11989.2212408,-14
1643457803720,11989.2212437,-23
1643457803748,11989.2212466,-18
1643457803748,11989.2212494,-11
1643457803748,11989.2212523,-14
1643457803748,11989.2212552,-14
1643457803748,11989.221258,-16
1643457803748,11989.2212609,-23
1643457803748,11989.2212638,-26
1643457803748,11989.2212667,-21
1643457803748,11989.2212696,-18
1643457803748,11989.2212725,-16
1643457803772,11989.2212754,-9
1643457803772,11989.2212783,-9
1643457803772,11989.2212811,-14
1643457803772,11989.2212856,-11
1643457803772,11989.2212886,-14
1643457803772,11989.2212916,-23
1643457803772,11989.2212946,-21
1643457803772,11989.2212976,-14
1643457803772,11989.2213006,-11
1643457803772,11989.2213035,-4
1643457803803,11989.2213064,4
1643457803803,11989.2213093,0
1643457803803,11989.2213123,-18
1643457803803,11989.2213153,-23
1643457803803,11989.2213182,-21
1643457803803,11989.2213211,-26
1643457803803,11989.2213239,-21
1643457803803,11989.2213268,-7
1643457803803,11989.2213297,-9
1643457803803,11989.2213326,-26
1643457803835,11989.2213355,-73
1643457803835,11989.2213387,-99
1643457803835,11989.2213416,44
1643457803835,11989.2213445,366
1643457803835,11989.2213475,624
1643457803835,11989.2213504,529
1643457803835,11989.2213533,87
1643457803835,11989.2213561,-193
1643457803835,11989.221359,-78
1643457803835,11989.2213621,-2
1643457803868,11989.2213648,-70
1643457803868,11989.2213677,-54
1643457803868,11989.221371,-14
1643457803868,11989.2213739,-33
1643457803868,11989.2213768,-40
1643457803868,11989.6732669,-16
1643457803868,11989.6732816,-11
1643457803868,11989.6732851,-11
1643457803868,11989.6732883,-4
1643457803868,11989.6732924,-2
1643457803904,11989.6732964,-2
1643457803904,11989.6732995,0
1643457803904,11989.6733025,7
1643457803904,11989.6733055,14
1643457804591,11989.6733085,16
1643457804591,11989.6733113,21
1643457804591,11989.673314,33
1643457804591,11989.6733171,35
1643457804591,11989.6733199,40
1643457804591,11989.6733226,59
1643457804591,11989.6733253,78
1643457804591,11989.6733282,89
1643457804591,11989.673331,101
1643457804591,11989.6733337,101
1643457804617,11989.6733364,87
1643457804617,11989.6733394,92
1643457804617,11989.6733421,106
1643457804617,11989.6733449,99
1643457804617,11989.6733476,89
1643457804617,11989.6733504,70
1643457804617,11989.6733531,33
1643457804617,11989.6733559,-2
1643457804617,11989.6733587,-23
1643457804617,11989.6733614,-42
1643457804643,11989.6733641,-59
1643457804643,11989.6733668,-63
1643457804643,11989.6733696,-63
1643457804643,11989.6733725,-63
1643457804643,11989.6733752,-61
1643457804643,11989.6733781,-52
1643457804643,11989.6733814,-42
1643457804643,11989.6733844,-37
1643457804643,11989.6733875,-30
1643457804643,11989.6733918,-23
1643457804668,11989.6733947,-18
1643457804668,11989.6734,-18
1643457804668,11989.6734031,-23
1643457804668,11989.6734062,-18
1643457804668,11989.6734104,-9
1643457804668,11989.6734136,-14
1643457804668,11989.6734176,-23
1643457804668,11989.6734206,-21
1643457804668,11989.6734236,-16
1643457804668,11989.6734265,-18
1643457804693,11989.6734294,-14
1643457804693,11989.6734324,-14
1643457804693,11989.6734351,-21
1643457804693,11989.6734382,-23
1643457804693,11989.6734409,-16
1643457804693,11989.6734438,-14
1643457804693,11989.6734469,-14
1643457804693,11989.6734499,-14
1643457804693,11989.6734528,-14
1643457804693,11989.6734558,-14
1643457804722,11989.6734588,-14
1643457804722,11989.6734629,-21
1643457804722,11989.6734659,-26
1643457804722,11989.6734689,-23
1643457804722,11989.673472,-16
1643457804722,11989.6734759,-11
1643457804722,11989.673479,-4
1643457804722,11989.6734835,4
1643457804722,11989.6734891,-2
1643457804722,11989.6734921,-21
1643457804748,11989.6734953,-23
1643457804748,11989.6735009,-18
1643457804748,11989.6735041,-21
1643457804748,11989.6735069,-21
1643457804748,11990.5678435,-18
1643457804748,11990.5678561,-21
1643457804748,11990.5678597,-40
1643457804748,11990.567863,-106
1643457804748,11990.5678682,-151
1643457804748,11990.5678712,9
1643457804773,11990.5678764,347
1643457804773,11990.5678803,572
1643457804773,11990.5678835,416
1643457804773,11990.5678884,-35
1643457805058,11990.567893,-252
1643457805058,11990.5678959,-111
1643457805058,11990.5678988,-54
1643457805058,11990.5679016,-118
1643457805058,11990.5679044,-92
1643457805058,11990.5679073,-56
1643457805058,11990.5679101,-73
1643457805058,11990.567913,-78
1643457805058,11990.5679161,-66
1643457805058,11990.5679189,-61
1643457805083,11990.5679218,-56
1643457805083,11990.5679246,-47
1643457805083,11990.5679277,-40
1643457805083,11990.5679305,-33
1643457805083,11990.5679333,-26
1643457805083,11990.5679361,-16
1643457805083,11990.5679392,-4
1643457805083,11990.5679432,-4
1643457805083,11990.5679488,0
1643457805083,11990.5679526,16
1643457805110,11990.5679557,28
1643457805110,11990.5679601,35
1643457805110,11990.5679649,49
1643457805110,11990.5679681,66
1643457805110,11990.5679711,80
1643457805110,11990.5679759,94
1643457805110,11990.5679789,106
1643457805110,11990.567982,115
1643457805110,11990.5679867,118
1643457805110,11990.5679914,115
1643457805135,11990.5679961,113
1643457805135,11990.5680003,106
1643457805135,11990.568005,82
1643457805135,11990.5680079,44
1643457805135,11990.568011,9
1643457805135,11990.5680159,-14
1643457805135,11990.5680188,-28
1643457805135,11990.5680219,-37
1643457805135,11990.5680267,-49
1643457805135,11990.5680313,-54
1643457805167,11990.5680362,-52
1643457805167,11990.5680393,-52
1643457805167,11990.5680439,-44
1643457805167,11990.5680469,-35
1643457805167,11990.56805,-30
1643457805167,11990.5680547,-28
1643457805167,11990.5680592,-26
1643457805167,11990.5680639,-18
1643457805167,11990.5680685,-16
1643457805167,11990.5680732,-18
1643457805200,11990.568078,-16
1643457805200,11990.5680829,-9
1643457805200,11990.5680858,-11
1643457805200,11990.568089,-16
1643457805200,11990.5680938,-16
1643457805200,11990.5680968,-16
1643457805200,11990.5680999,-18
1643457805200,11990.5681045,-18
1643457805200,11990.5681092,-14
1643457805200,11990.568114,-16
1643457805235,11990.5681172,-21
1643457805235,11990.5681219,-14
1643457805235,11990.5681266,-7
1643457805235,11991.0170743,-9
1643457805235,11991.0170863,-18
1643457805235,11991.0170914,-18
1643457805235,11991.0170956,-18
1643457805235,11991.0170987,-18
1643457805235,11991.0171018,-16
1643457805235,11991.0171047,-21
1643457805270,11991.0171077,-23
1643457805270,11991.0171107,-23
1643457805270,11991.0171136,-30
1643457805270,11991.0171165,-33
1643457805401,11991.0171194,-18
1643457805401,11991.0171224,2
1643457805401,11991.0171251,-2
1643457805401,11991.0171408,-30
1643457805401,11991.0171669,-44
1643457805401,11991.0171748,-37
1643457805401,11991.0171814,-28
1643457805401,11991.0171853,-23
1643457805401,11991.0171885,-18
1643457805401,11991.0171923,-18
1643457805436,11991.0171965,-35
1643457805436,11991.0171996,-85
1643457805436,11991.0172045,-104
1643457805436,11991.0172076,40
1643457805436,11991.0172108,352
1643457805436,11991.0172157,607
1643457805436,11991.0172185,522
1643457805436,11991.0172216,80
1643457805436,11991.0172246,-210
1643457805436,11991.0172275,-94
1643457805467,11991.0172305,-2
1643457805467,11991.0172354,-70
1643457805467,11991.0172403,-66
1643457805467,11991.0172434,-28
1643457805467,11991.0172464,-44
1643457805467,11991.0172493,-49
1643457805467,11991.0172522,-33
1643457805467,11991.0172552,-28
1643457805467,11991.0172583,-21
1643457805467,11991.0172626,-14
1643457805498,11991.0172657,-26
1643457805498,11991.0172688,-37
1643457805498,11991.0172718,-26
1643457805498,11991.0172748,-11
1643457805498,11991.0172778,-9
1643457805498,11991.0172808,0
1643457805498,11991.0172838,7
1643457805498,11991.0172869,7
1643457805498,11991.017291,16
1643457805498,11991.0173649,30
1643457805536,11991.0173701,42
1643457805536,11991.017374,59
1643457805536,11991.0174839,82
1643457805536,11991.0174945,101
1643457805536,11991.0175021,108
1643457805536,11991.0175054,111
1643457805536,11991.0175096,120
1643457805536,11991.0175124,125
1643457805536,11991.0175153,120
1643457805536,11991.0175181,104
1643457805568,11991.0175208,73
1643457805568,11991.0175238,44
1643457805568,11991.0175269,18
1643457805568,11991.0175299,-14
1643457805568,11991.0175351,-37
1643457805568,11991.017538,-47
1643457805568,11991.017541,-56
1643457805568,11991.017544,-63
1643457805568,11991.017547,-61
1643457805568,11991.0175498,-52
1643457805602,11991.0175527,-42
1643457805602,11991.0175557,-37
1643457805602,11991.3724433,-37
1643457805602,11991.3724556,-44
1643457805602,11991.3724591,-49
1643457805602,11991.3724623,-44
1643457805602,11991.3724663,-37
1643457805602,11991.3724695,-30
1643457805602,11991.3724744,-33
1643457805602,11991.3724773,-47
1643457805635,11991.3724804,-56
1643457805635,11991.372485,-49
1643457805635,11991.3724889,-40
1643457805635,11991.3724936,-40
1643457805996,11991.3725012,-40
1643457805996,11991.3725044,-40
1643457805996,11991.3725072,-42
1643457805996,11991.3725101,-37
1643457805996,11991.372513,-40
1643457805996,11991.3725212,-44
1643457805996,11991.3725244,-40
1643457805996,11991.3725273,-42
1643457805996,11991.3725301,-59
1643457805996,11991.3725328,-68
1643457806023,11991.3725356,-56
1643457806023,11991.3725385,-47
1643457806023,11991.3725413,-49
1643457806023,11991.3725441,-49
1643457806023,11991.3725469,-49
1643457806023,11991.3725498,-56
1643457806023,11991.37257,-47
1643457806023,11991.3725795,-26
1643457806023,11991.372583,-18
1643457806023,11991.3725861,-14
1643457806050,11991.3725889,-7
1643457806050,11991.3725918,-18
1643457806050,11991.3725946,-37
1643457806050,11991.3725975,-33
1643457806050,11991.3726004,-21
1643457806050,11991.3726032,-23
1643457806050,11991.372606,-18
1643457806050,11991.3726088,-11
1643457806050,11991.3726116,-21
1643457806050,11991.3726144,-49
1643457806076,11991.3726395,-96
1643457806076,11991.3726452,-73
1643457806076,11991.3726483,148
1643457806076,11991.3726513,482
1643457806076,11991.3726541,659
1643457806076,11991.3726571,432
1643457806076,11991.3726599,-54
1643457806076,11991.3726627,-205
1643457806076,11991.3726655,-33
1643457806076,11991.3726684,-18
1643457806102,11991.3726711,-85
1643457806102,11991.372674,-47
1643457806102,11991.3726768,-23
1643457806102,11991.3726796,-40
1643457806102,11991.3726824,-28
1643457806102,11991.3726853,-11
1643457806102,11991.3726881,-11
1643457806102,11991.3726909,-11
1643457806102,11991.3726938,-2
1643457806102,11991.3726966,4
1643457806128,11991.3726994,11
1643457806128,11991.3727022,18
1643457806128,11991.3727051,23
1643457806128,11991.3727079,28
1643457806128,11991.3727107,33
1643457806128,11991.3727135,33
1643457806128,11991.3727164,33
1643457806128,11991.3728336,44
1643457806128,11991.3728385,63
1643457806128,11991.3728415,75
1643457806155,11991.3728462,89
1643457806155,11991.9723766,101
1643457806155,11991.9723894,113
1643457806155,11991.9723928,127
1643457806155,11991.9723959,137
1643457806155,11991.9723995,137
1643457806155,11991.9724025,118
1643457806155,11991.9724054,82
1643457806155,11991.9724105,59
1643457806155,11991.9724133,49
1643457806181,11991.9724162,23
1643457806181,11991.9724192,-11
1643457806181,11991.9724221,-37
1643457806181,11991.972425,-54
1643457806690,11991.9724278,-66
1643457806690,11991.9724307,-68
1643457806690,11991.9724334,-68
1643457806690,11991.9724361,-68
1643457806690,11991.9724388,-66
1643457806690,11991.9724414,-66
1643457806690,11991.972444,-59
1643457806690,11991.9724467,-47
1643457806690,11991.9724493,-40
1643457806690,11991.972452,-35
1643457806723,11991.9724547,-26
1643457806723,11991.9724574,-21
1643457806723,11991.9724601,-18
1643457806723,11991.9724627,-18
1643457806723,11991.9724654,-14
1643457806723,11991.9724681,-9
1643457806723,11991.9724707,-7
1643457806723,11991.9724734,-9
1643457806723,11991.9724773,-11
1643457806723,11991.9724822,-14
1643457806762,11991.972485,-16
1643457806762,11991.9724879,-18
1643457806762,11991.9724908,-23
1643457806762,11991.9724937,-28
1643457806762,11991.9724991,-30
1643457806762,11991.9725038,-30
1643457806762,11991.9725074,-28
1643457806762,11991.9725115,-26
1643457806762,11991.9725142,-23
1643457806762,11991.972517,-23
1643457806794,11991.9725248,-21
1643457806794,11991.9725276,-21
1643457806794,11991.9725305,-21
1643457806794,11991.9725332,-14
1643457806794,11991.9725358,-11
1643457806794,11991.9725386,-11
1643457806794,11991.9725413,-9
1643457806794,11991.972544,-14
1643457806794,11991.9725466,-14
1643457806794,11991.9725493,-4
1643457806825,11991.9725521,4
1643457806825,11991.9725548,11
1643457806825,11991.9725576,23
1643457806825,11991.9725603,28
1643457806825,11991.972563,9
1643457806825,11991.9725658,-7
1643457806825,11991.9725688,0
1643457806825,11991.9725717,0
1643457806825,11991.9725745,-9
1643457806825,11991.9725772,-4
1643457806859,11991.97258,0
1643457806859,11991.9725828,-14
1643457806859,11991.9725868,-59
1643457806859,11991.9725905,-96
1643457806859,11991.9725936,-4
1643457806859,11991.9725992,278
1643457806859,11991.9726021,579
1643457806859,11991.9726048,609
1643457806859,11991.9726077,229
1643457806859,11991.9726104,-174
1643457806892,11992.6664007,-139
1643457806892,11992.6664219,9
1643457806892,11992.6664287,-44
1643457806892,11992.6664322,-68
1643457806892,11992.6664374,-23
1643457806892,11992.6664407,-26
1643457806892,11992.6664455,-37
1643457806892,11992.6664486,-16
1643457806892,11992.6664534,-7
1643457806892,11992.6664565,-9
1643457806922,11992.6664606,-16
1643457806922,11992.6664637,-35
1643457806922,11992.6664685,-44
1643457806922,11992.6664714,-28
1643457807195,11992.6664745,-18
1643457807195,11992.6664775,-14
1643457807195,11992.6664805,-2
1643457807195,11992.6664834,4
1643457807195,11992.6664863,9
1643457807195,11992.6665329,23
1643457807195,11992.6665393,37
1643457807195,11992.6665424,49
1643457807195,11992.6665453,63
1643457807195,11992.6667713,78
1643457807226,11992.6667896,92
1643457807226,11992.6667942,106
1643457807226,11992.666798,120
1643457807226,11992.6668057,125
1643457807226,11992.6668099,120
1643457807226,11992.6668129,115
1643457807226,11992.666816,111
1643457807226,11992.6668188,94
1643457807226,11992.6668216,63
1643457807226,11992.6668245,30
1643457807260,11992.6668274,0
1643457807260,11992.6668303,-26
1643457807260,11992.6668331,-42
1643457807260,11992.6668359,-54
1643457807260,11992.6668388,-59
1643457807260,11992.6668416,-59
1643457807260,11992.6668444,-54
1643457807260,11992.6668472,-52
1643457807260,11992.6668501,-49
1643457807260,11992.6668528,-42
1643457807289,11992.6668557,-37
1643457807289,11992.6668586,-30
1643457807289,11992.6668614,-23
1643457807289,11992.6668642,-26
1643457807289,11992.666867,-26
1643457807289,11992.6668698,-23
1643457807289,11992.6668726,-28
1643457807289,11992.6668755,-26
1643457807289,11992.6668783,-26
1643457807289,11992.6668811,-37
1643457807318,11992.666884,-37
1643457807318,11992.6668868,-33
1643457807318,11992.6668897,-33
1643457807318,11992.6668936,-33
1643457807318,11992.6668967,-30
1643457807318,11992.6668997,-33
1643457807318,11992.6669041,-35
1643457807318,11992.6669072,-33
1643457807318,11992.6669126,-33
1643457807318,11992.6669156,-33
1643457807348,11992.6669186,-30
1643457807348,11992.6669217,-33
1643457807348,11992.6669263,-28
1643457807348,11992.6669292,-16
1643457807348,11992.6669322,-9
1643457807348,11992.6669351,-9
1643457807348,11992.6669382,-14
1643457807348,11992.6669427,-18
1643457807348,11992.6669458,-11
1643457807348,11993.1672395,2
1643457807376,11993.1672539,0
1643457807376,11993.1672598,-9
1643457807376,11993.167266,-11
1643457807376,11993.1672706,-9
1643457807376,11993.1672741,4
1643457807376,11993.1672794,18
1643457807376,11993.1672827,26
1643457807376,11993.1672876,35
1643457807376,11993.1673019,30
1643457807376,11993.1673192,4
1643457807405,11993.167325,-4
1643457807405,11993.1673287,11
1643457807405,11993.1673454,16
1643457807405,11993.1673507,9
1643457807756,11993.1673538,11
1643457807756,11993.1673569,2
1643457807756,11993.1673599,-14
1643457807756,11993.1673629,-56
1643457807756,11993.1673659,-85
1643457807756,11993.167449,49
1643457807756,11993.1674549,349
1643457807756,11993.1674581,586
1643457807756,11993.1674612,503
1643457807756,11993.1674642,85
1643457807783,11993.1674673,-217
1643457807783,11993.1674703,-120
1643457807783,11993.1674733,-21
1643457807783,11993.1674764,-78
1643457807783,11993.1674794,-78
1643457807783,11993.1674824,-40
1643457807783,11993.1674854,-47
1643457807783,11993.1674884,-40
1643457807783,11993.1674914,-18
1643457807783,11993.1674943,-21
1643457807810,11993.1675003,-26
1643457807810,11993.1675244,-9
1643457807810,11993.1675317,2
1643457807810,11993.167535,0
1643457807810,11993.167538,7
1643457807810,11993.1676017,14
1643457807810,11993.1676052,16
1643457807810,11993.1676082,26
1643457807810,11993.1676113,37
1643457807810,11993.1676142,47
1643457807839,11993.1676173,49
1643457807839,11993.1676202,52
1643457807839,11993.1676231,61
1643457807839,11993.167626,78
1643457807839,11993.1676289,92
1643457807839,11993.1676318,101
1643457807839,11993.1676347,108
1643457807839,11993.1676376,118
1643457807839,11993.1676404,127
1643457807839,11993.1676433,134
1643457807868,11993.1676462,132
1643457807868,11993.1676491,122
1643457807868,11993.167652,99
1643457807868,11993.1676555,66
1643457807868,11993.1676584,35
1643457807868,11993.1676676,9
1643457807868,11993.1676815,-21
1643457807868,11993.1676851,-47
1643457807868,11993.167688,-61
1643457807868,11993.1676977,-66
1643457807898,11993.1677116,-66
1643457807898,11993.1677227,-66
1643457807898,11993.167727,-68
1643457807898,11993.1677301,-66
1643457807898,11993.1677419,-54
1643457807898,11993.1677667,-44
1643457807898,11993.1677714,-49
1643457807898,11993.1677748,-42
1643457807898,11993.7187567,-33
1643457807898,11993.7187695,-33
1643457807926,11993.7187734,-30
1643457807926,11993.7187787,-28
1643457807926,11993.718782,-26
1643457807926,11993.718787,-16
1643457807926,11993.7187902,-14
1643457807926,11993.7187955,-28
1643457807926,11993.7187987,-44
1643457807926,11993.7188038,-40
1643457807926,11993.718807,-33
1643457807926,11993.7188121,-37
1643457807953,11993.7188154,-42
1643457807953,11993.7188205,-37
1643457807953,11993.7188236,-47
1643457807953,11993.7188267,-59
1643457808369,11993.7188298,-47
1643457808369,11993.7188328,-37
1643457808369,11993.7188358,-42
1643457808369,11993.7188386,-40
1643457808369,11993.7188416,-35
1643457808369,11993.7188444,-40
1643457808369,11993.7188473,-35
1643457808369,11993.7188502,-23
1643457808369,11993.718853,-23
1643457808369,11993.7188559,-23
1643457808403,11993.7188588,-18
1643457808403,11993.7188617,-26
1643457808403,11993.7188646,-23
1643457808403,11993.7188675,-7
1643457808403,11993.7188704,4
1643457808403,11993.7188733,9
1643457808403,11993.7188764,18
1643457808403,11993.7188798,16
1643457808403,11993.7188827,-4
1643457808403,11993.7188856,-4
1643457808439,11993.7188886,11
1643457808439,11993.7188914,9
1643457808439,11993.7188943,-7
1643457808439,11993.7188972,-4
1643457808439,11993.7189002,0
1643457808439,11993.7189031,-33
1643457808439,11993.718906,-87
1643457808439,11993.7189089,-52
1643457808439,11993.7189118,182
1643457808439,11993.7189148,501
1643457808470,11993.7189177,626
1643457808470,11993.7189206,368
1643457808470,11993.7189235,-66
1643457808470,11993.7189263,-160
1643457808470,11993.7189293,-11
1643457808470,11993.7189323,-14
1643457808470,11993.7189356,-59
1643457808470,11993.7189385,-18
1643457808470,11993.7189414,-7
1643457808470,11993.7189442,-23
1643457808503,11993.7189471,-9
1643457808503,11993.71895,4
1643457808503,11993.7189529,4
1643457808503,11993.7189559,9
1643457808503,11993.7189588,11
1643457808503,11993.7189628,16
1643457808503,11993.7189661,26
1643457808503,11993.718969,28
1643457808503,11993.7189719,30
1643457808503,11993.7189747,37
1643457808535,11993.7189775,42
1643457808535,11993.7189803,44
1643457808535,11993.7189832,52
1643457808535,11993.7189861,66
1643457808535,11993.718989,80
1643457808535,11993.7189919,92
1643457808535,11993.7189947,106
1643457808535,11994.3203971,122
1643457808535,11994.3204126,132
1643457808535,11994.3204165,137
1643457808571,11994.3204218,146
1643457808571,11994.320425,153
1643457808571,11994.32043,151
1643457808571,11994.3204331,139
1643457808571,11994.3204362,120
1643457808571,11994.3204411,87
1643457808571,11994.3204441,47
1643457808571,11994.3204472,11
1643457808571,11994.3204521,-18
1643457808571,11994.3204551,-52
1643457808602,11994.3204583,-92
1643457808602,11994.3204623,-111
1643457808602,11994.3204655,-101
1643457808602,11994.3204705,-94
1643457808902,11994.3204756,-92
1643457808902,11994.3204787,-87
1643457808902,11994.3204816,-89
1643457808902,11994.3204846,-94
1643457808902,11994.3204874,-82
1643457808902,11994.3204903,-68
1643457808902,11994.3204932,-63
1643457808902,11994.3204961,-56
1643457808902,11994.3205017,-49
1643457808902,11994.3205047,-49
1643457808930,11994.3205234,-44
1643457808930,11994.320528,-37
1643457808930,11994.3206031,-33
1643457808930,11994.3206103,-35
1643457808930,11994.3206852,-42
1643457808930,11994.3206986,-49
1643457808930,11994.3207031,-44
1643457808930,11994.3207067,-40
1643457808930,11994.3207103,-37
1643457808930,11994.3207131,-33
1643457808957,11994.3207161,-30
1643457808957,11994.3207189,-35
1643457808957,11994.3207218,-35
1643457808957,11994.3207247,-23
1643457808957,11994.3207276,-16
1643457808957,11994.3207304,-18
1643457808957,11994.3207333,-16
1643457808957,11994.3207362,-11
1643457808957,11994.3207391,-14
1643457808957,11994.3207421,-11
1643457808984,11994.3207449,-7
1643457808984,11994.3207478,-4
1643457808984,11994.3207506,-4
1643457808984,11994.3207535,2
1643457808984,11994.3207563,11
1643457808984,11994.3207593,18
1643457808984,11994.3207638,30
1643457808984,11994.3207667,37
1643457808984,11994.3207697,21
1643457808984,11994.3207728,7
1643457809012,11994.3207759,11
1643457809012,11994.3207806,18
1643457809012,11994.3207835,16
1643457809012,11994.3207873,23
1643457809012,11994.3207905,28
1643457809012,11994.3207954,18
1643457809012,11994.3207986,-28
1643457809012,11994.3208027,-73
1643457809012,11994.3208087,28
1643457809012,11994.3208147,330
1643457809037,11994.3208177,631
1643457809037,11994.3208207,626
1643457809037,11994.3208238,224
1643457809037,11994.320828,-156
1643457809037,11994.3208311,-101
1643457809037,11994.3208363,28
1643457809037,11994.8663077,-30
1643457809037,11994.8663207,-44
1643457809037,11994.8663244,7
1643457809037,11994.8663295,-2
1643457809064,11994.8663336,-16
1643457809064,11994.8663377,0
1643457809064,11994.8663408,7
1643457809064,11994.8663456,7
1643457809064,11994.8663485,18
1643457809064,11994.8663515,26
1643457809064,11994.8663544,26
1643457809064,11994.8663573,23
1643457809064,11994.8663603,26
1643457809064,11994.8663632,28
1643457809092,11994.8663662,33
1643457809092,11994.8663713,44
1643457809092,11994.8663761,54
1643457809092,11994.8663809,56
1643457809509,11994.8663852,52
1643457809509,11994.8663882,56
1643457809509,11994.866391,73
1643457809509,11994.8663938,94
1643457809509,11994.8663966,111
1643457809509,11994.8663993,118
1643457809509,11994.8664022,101
1643457809509,11994.866405,80
1643457809509,11994.8664078,80
1643457809509,11994.8664106,87
1643457809536,11994.8664134,80
1643457809536,11994.8664162,59
1643457809536,11994.866419,21
1643457809536,11994.866422,-18
1643457809536,11994.8664251,-47
1643457809536,11994.8664292,-66
1643457809536,11994.8664323,-87
1643457809536,11994.8664372,-99
1643457809536,11994.8664401,-96
1643457809536,11994.8664431,-96
1643457809562,11994.8664461,-96
1643457809562,11994.8664491,-94
1643457809562,11994.866454,-87
1643457809562,11994.8664587,-78
1643457809562,11994.8664634,-73
1643457809562,11994.8664681,-73
1643457809562,11994.8664728,-68
1643457809562,11994.8664758,-59
1643457809562,11994.8664788,-47
1643457809562,11994.8664818,-42
1643457809594,11994.8664848,-42
1643457809594,11994.8664895,-37
1643457809594,11994.8664942,-40
1643457809594,11994.8665016,-37
1643457809594,11994.8665045,-26
1643457809594,11994.8665074,-23
1643457809594,11994.8665105,-30
1643457809594,11994.8665134,-30
1643457809594,11994.8665164,-28
1643457809594,11994.8665193,-33
1643457809622,11994.8665224,-35
1643457809622,11994.8665257,-28
1643457809622,11994.8665302,-26
1643457809622,11994.8665331,-26
1643457809622,11994.8665361,-21
1643457809622,11994.8665389,-16
1643457809622,11994.8665423,-16
1643457809622,11994.8665452,-11
1643457809622,11994.866548,-9
1643457809622,11994.8665509,-11
1643457809649,11994.866554,-4
1643457809649,11994.8665568,2
1643457809649,11994.8665596,0
1643457809649,11994.8665624,0
1643457809649,11994.8665653,2
1643457809649,11995.4708465,0
1643457809649,11995.4708606,7
1643457809649,11995.4708647,26
1643457809649,11995.4708705,30
1643457809649,11995.4708738,35
1643457809680,11995.4708772,40
1643457809680,11995.4708825,23
1643457809680,11995.4708865,9
1643457809680,11995.4708916,18
1643457809680,11995.4708949,18
1643457809680,11995.4709001,-16
1643457809680,11995.4709049,-30
1643457809680,11995.4709101,-11
1643457809680,11995.4709134,-16
1643457809680,11995.4709186,-68
1643457809714,11995.4709219,-113
1643457809714,11995.470927,-30
1643457809714,11995.4709309,255
1643457809714,11995.4709364,567
1643457809947,11995.4709405,612
1643457809947,11995.4709438,236
1643457809947,11995.4709468,-177
1643457809947,11995.4709498,-148
1643457809947,11995.4709528,-7
1643457809947,11995.4709557,-61
1643457809947,11995.4709586,-80
1643457809947,11995.4709615,-28
1643457809947,11995.4709644,-28
1643457809947,11995.4709674,-40
1643457809983,11995.4709703,-23
1643457809983,11995.4709732,-18
1643457809983,11995.4710019,-26
1643457809983,11995.4710144,-21
1643457809983,11995.4710185,-9
1643457809983,11995.471022,-2
1643457809983,11995.4710251,-4
1643457809983,11995.4710282,-4
1643457809983,11995.4710313,4
1643457809983,11995.4710346,16
1643457810013,11995.4710379,23
1643457810013,11995.4710427,28
1643457810013,11995.4710461,37
1643457810013,11995.4710506,49
1643457810013,11995.4710539,56
1643457810013,11995.471058,68
1643457810013,11995.4710614,85
1643457810013,11995.4710669,99
1643457810013,11995.47107,104
1643457810013,11995.4710732,104
1643457810047,11995.4710766,106
1643457810047,11995.4710994,106
1643457810047,11995.4711111,108
1643457810047,11995.4711149,106
1643457810047,11995.4711181,89
1643457810047,11995.4711213,63
1643457810047,11995.4711243,28
1643457810047,11995.4711274,-7
1643457810047,11995.4711304,-33
1643457810047,11995.4711334,-44
1643457810082,11995.4711364,-52
1643457810082,11995.4711394,-63
1643457810082,11995.4711424,-70
1643457810082,11995.4711453,-63
1643457810082,11995.4711483,-54
1643457810082,11995.4711513,-52
1643457810082,11995.4711543,-47
1643457810082,11995.471158,-40
1643457810082,11995.471161,-33
1643457810082,11995.471164,-28
1643457810115,11995.4711669,-26
1643457810115,11995.4711699,-18
1643457810115,11995.4711729,-16
1643457810115,11995.4711759,-14
1643457810115,11995.9182131,-11
1643457810115,11995.9182266,-9
1643457810115,11995.9182313,-9
1643457810115,11995.9182344,-7
1643457810115,11995.9182387,-4
1643457810115,11995.9182418,-9
1643457810147,11995.9182448,-16
1643457810147,11995.9182477,-14
1643457810147,11995.9182506,-11
1643457810147,11995.9182536,-21
1643457810147,11995.9182564,-26
1643457810147,11995.9182592,-16
1643457810147,11995.9182619,-11
1643457810147,11995.9182646,-11
1643457810147,11995.9182674,-16
1643457810147,11995.9182711,-18
1643457810184,11995.9182741,-14
1643457810184,11995.9182771,-11
1643457810184,11995.9182802,-9
1643457810184,11995.9182832,-4
1643457810509,11995.9182862,-2
1643457810509,11995.918289,-14
1643457810509,11995.9182918,-18
1643457810509,11995.9182945,-21
1643457810509,11995.9182973,-23
1643457810509,11995.9183102,-11
1643457810509,11995.9183153,4
1643457810509,11995.9183183,4
1643457810509,11995.9183211,-11
1643457810509,11995.9183239,-16
1643457810537,11995.9183266,-16
1643457810537,11995.9183294,-28
1643457810537,11995.9183321,-28
1643457810537,11995.9183348,-18
1643457810537,11995.9183375,-18
1643457810537,11995.9183404,-18
1643457810537,11995.9183431,-9
1643457810537,11995.9183458,-16
1643457810537,11995.9183485,-56
1643457810537,11995.9183513,-108
1643457810566,11995.9183541,-59
1643457810566,11995.9183569,179
1643457810566,11995.9183596,479
1643457810566,11995.9183624,593
1643457810566,11995.9183651,323
1643457810566,11995.9183679,-106
1643457810566,11995.9183706,-177
1643457810566,11995.9183734,-23
1643457810566,11995.9183761,-37
1643457810566,11995.9183958,-78
1643457810596,11995.9184049,-33
1643457810596,11995.9184085,-21
1643457810596,11995.9184116,-33
1643457810596,11995.9184153,-21
1643457810596,11995.9184182,-14
1643457810596,11995.9184209,-21
1643457810596,11995.9184236,-21
1643457810596,11995.9184264,-7
1643457810596,11995.9184292,7
1643457810596,11995.918432,7
1643457810625,11995.9184348,4
1643457810625,11995.9184375,9
1643457810625,11995.9184403,16
1643457810625,11995.9184431,23
1643457810625,11995.9184459,35
1643457810625,11995.9184486,49
1643457810625,11995.9184514,56
1643457810625,11995.9184541,56
1643457810625,11995.9184568,68
1643457810625,11995.9184596,89
1643457810652,11995.9184624,99
1643457810652,11995.9184651,104
1643457810652,11995.9184682,111
1643457810652,11996.4702586,118
1643457810652,11996.4702719,108
1643457810652,11996.4702756,99
1643457810652,11996.470281,96
1643457810652,11996.4702848,87
1643457810652,11996.470288,61
1643457810652,11996.4702922,14
1643457810679,11996.4702954,-42
1643457810679,11996.4703003,-80
1643457810679,11996.4703051,-92
1643457810679,11996.4703099,-106
1643457810679,11996.4703144,-115
1643457810679,11996.4703186,-111
1643457810679,11996.4703218,-106
1643457810679,11996.4703268,-106
1643457810679,11996.4703315,-99
1643457810679,11996.4703363,-94
1643457810707,11996.4703408,-82
1643457810707,11996.4703456,-68
1643457810707,11996.4703504,-68
1643457810707,11996.4703554,-63
1643457811113,11996.4703583,-54
1643457811113,11996.4703613,-47
1643457811113,11996.4703642,-47
1643457811113,11996.4703672,-42
1643457811113,11996.4703701,-30
1643457811113,11996.4703729,-28
1643457811113,11996.4703757,-37
1643457811113,11996.4703785,-37
1643457811113,11996.4703814,-30
1643457811113,11996.4703843,-30
1643457811144,11996.4703871,-30
1643457811144,11996.47039,-26
1643457811144,11996.4703931,-26
1643457811144,11996.4703962,-28
1643457811144,11996.4704015,-23
1643457811144,11996.4704046,-18
1643457811144,11996.4704086,-14
1643457811144,11996.4704117,-9
1643457811144,11996.4704168,-11
1643457811144,11996.4704198,-11
1643457811172,11996.470423,-4
1643457811172,11996.4704279,-2
1643457811172,11996.4704308,-11
1643457811172,11996.4704339,-11
1643457811172,11996.4704388,0
1643457811172,11996.4704418,11
1643457811172,11996.4704449,11
1643457811172,11996.470448,16
1643457811172,11996.4704529,26
1643457811172,11996.4704559,23
1643457811201,11996.470459,9
1643457811201,11996.470463,4
1643457811201,11996.4704679,9
1643457811201,11996.4704709,9
1643457811201,11996.4704739,14
1643457811201,11996.4704793,23
1643457811201,11996.470484,18
1643457811201,11996.4704888,-18
1643457811201,11996.4704935,-70
1643457811201,11996.4705012,-23
1643457811229,11996.4705042,222
1643457811229,11996.4705075,531
1643457811229,11996.4705129,619
1643457811229,11996.4705159,321
1643457811229,11996.4705192,-96
1643457811229,11996.4705228,-158
1643457811229,11996.4705282,-21
1643457811229,11996.4705314,-40
1643457811229,11996.4705365,-68
1643457811229,11996.4705397,-30
1643457811259,11996.4705446,-28
1643457811259,11996.4705477,-37
1643457811259,11997.0720906,-18
1643457811259,11997.0721011,-7
1643457811259,11997.0721046,-11
1643457811259,11997.0721076,-4
1643457811259,11997.0721106,2
1643457811259,11997.0721136,-4
1643457811259,11997.0721165,-11
1643457811259,11997.0721197,-7
1643457811292,11997.0721229,0
1643457811292,11997.0721258,4
1643457811292,11997.0721286,11
1643457811292,11997.0721315,14
1643457811292,11997.0721343,9
1643457811292,11997.0721372,18
1643457811292,11997.0721401,37
1643457811292,11997.0721431,49
1643457811292,11997.072148,63
1643457811292,11997.0721524,85
1643457811328,11997.0721567,99
1643457811328,11997.0721598,108
1643457811328,11997.0721629,108
1643457811328,11997.072166,108
1643457811590,11997.0721702,111
1643457811590,11997.0721732,104
1643457811590,11997.0721761,78
1643457811590,11997.0721791,44
1643457811590,11997.0721819,4
1643457811590,11997.0721849,-30
1643457811590,11997.0721877,-54
1643457811590,11997.0721906,-75
1643457811590,11997.0721935,-87
1643457811590,11997.0721963,-92
1643457811625,11997.0721991,-94
1643457811625,11997.072202,-92
1643457811625,11997.0722048,-85
1643457811625,11997.0722076,-73
1643457811625,11997.0722105,-66
1643457811625,11997.0722133,-63
1643457811625,11997.0722162,-59
1643457811625,11997.072219,-52
1643457811625,11997.0722219,-44
1643457811625,11997.0722585,-37
1643457811658,11997.0722639,-28
1643457811658,11997.072267,-26
1643457811658,11997.0722701,-28
1643457811658,11997.0722732,-28
1643457811658,11997.0722776,-23
1643457811658,11997.0722806,-16
1643457811658,11997.0722838,-16
1643457811658,11997.0722869,-18
1643457811658,11997.07229,-18
1643457811658,11997.0722931,-23
1643457811690,11997.0722961,-26
1643457811690,11997.0722992,-26
1643457811690,11997.0723022,-23
1643457811690,11997.072305,-21
1643457811690,11997.0723079,-21
1643457811690,11997.0723107,-16
1643457811690,11997.0723136,-14
1643457811690,11997.0723164,-18
1643457811690,11997.0723192,-30
1643457811690,11997.072322,-28
1643457811724,11997.0723252,-16
1643457811724,11997.0723282,-9
1643457811724,11997.0723315,-4
1643457811724,11997.0723365,7
1643457811724,11997.0723395,14
1643457811724,11997.0723426,-2
1643457811724,11997.0723459,-11
1643457811724,11997.0723499,-2
1643457811724,11997.072353,2
1643457811724,11997.0723574,2
1643457811757,11997.0723606,4
1643457811757,11997.5727575,9
1643457811757,11997.5727683,4
1643457811757,11997.5727722,-33
1643457811757,11997.5727783,-75
1643457811757,11997.5727815,7
1643457811757,11997.5727847,288
1643457811757,11997.5727894,591
1643457811757,11997.5727926,614
1643457811757,11997.5727958,245
1643457811790,11997.5727999,-144
1643457811790,11997.572803,-122
1643457811790,11997.5728072,11
1643457811790,11997.5728104,-33
1643457811790,11997.5728157,-52
1643457811790,11997.5728189,-9
1643457811790,11997.572824,-9
1643457811790,11997.5728278,-33
1643457811790,11997.572831,-52
1643457811790,11997.5728364,-61
1643457811824,11997.572846,-42
1643457811824,11997.572851,-26
1643457811824,11997.5728564,-26
1643457811824,11997.5728593,-16
1643457812158,11997.5728624,-9
1643457812158,11997.5728661,-2
1643457812158,11997.572869,14
1643457812158,11997.5728719,21
1643457812158,11997.5728749,18
1643457812158,11997.5728778,28
1643457812158,11997.5728806,42
1643457812158,11997.5728836,52
1643457812158,11997.5728865,68
1643457812158,11997.5728894,85
1643457812190,11997.5728924,85
1643457812190,11997.5728955,96
1643457812190,11997.5728984,125
1643457812190,11997.5729013,132
1643457812190,11997.5729043,134
1643457812190,11997.5729131,137
1643457812190,11997.572917,125
1643457812190,11997.5729218,122
1643457812190,11997.5729279,118
1643457812190,11997.572931,70
1643457812225,11997.572936,18
1643457812225,11997.5729391,-4
1643457812225,11997.5729433,-23
1643457812225,11997.5729472,-49
1643457812225,11997.5729503,-61
1643457812225,11997.5729535,-68
1643457812225,11997.572958,-73
1643457812225,11997.5729632,-70
1643457812225,11997.5729662,-59
1643457812225,11997.5729693,-59
1643457812259,11997.5729724,-73
1643457812259,11997.5729775,-75
1643457812259,11997.5729805,-68
1643457812259,11997.5729836,-59
1643457812259,11997.5729886,-47
1643457812259,11997.5729916,-47
1643457812259,11997.5729946,-47
1643457812259,11997.5729978,-28
1643457812259,11997.5730021,-23
1643457812259,11997.5730054,-37
1643457812292,11997.5730103,-26
1643457812292,11997.5730133,-4
1643457812292,11997.5730164,-14
1643457812292,11997.5730214,-26
1643457812292,11997.5730262,-21
1643457812292,11997.573031,-14
1643457812292,11997.5730355,-11
1643457812292,11997.5730403,-9
1643457812292,11997.5730434,0
1643457812292,11997.5730465,11
1643457812328,11998.1220498,16
1643457812328,11998.1220632,9
1643457812328,11998.1220686,-7
1643457812328,11998.1220735,-9
1643457812328,11998.1220764,2
1643457812328,11998.1220795,14
1643457812328,11998.1220847,28
1643457812328,11998.1220876,44
1643457812328,11998.1220907,23
1643457812328,11998.1220956,-21
1643457812358,11998.1221002,-30
1643457812358,11998.122105,-33
1643457812358,11998.1221096,-35
1643457812358,11998.1221147,-11
1643457812358,11998.122119,0
1643457812358,11998.1221236,-21
1643457812358,11998.1221281,-33
1643457812358,11998.1221331,-59
1643457812358,11998.1221378,-75
1643457812358,11998.1221426,99
1643457812391,11998.1221456,472
1643457812391,11998.1221487,716
1643457812391,11998.1221536,477
1643457812391,11998.1221565,-49
1643457812694,11998.1221595,-212
1643457812694,11998.1221624,-18
1643457812694,11998.1221652,9
1643457812694,11998.1221679,-63
1643457812694,11998.1221707,-54
1643457812694,11998.1221735,-52
1643457812694,11998.1221763,-23
1643457812694,11998.1221791,16
1643457812694,11998.122182,4
1643457812694,11998.1221848,-11
1643457812722,11998.1221876,-26
1643457812722,11998.1221903,-23
1643457812722,11998.1221931,18
1643457812722,11998.1221959,18
1643457812722,11998.1222027,-14
1643457812722,11998.122207,21
1643457812722,11998.1222101,70
1643457812722,11998.1222131,54
1643457812722,11998.1222159,33
1643457812722,11998.1222187,30
1643457812747,11998.1222215,30
1643457812747,11998.1222243,63
1643457812747,11998.1222271,101
1643457812747,11998.12223,99
1643457812747,11998.1222328,104
1643457812747,11998.1222355,134
1643457812747,11998.1222383,141
1643457812747,11998.1222412,125
1643457812747,11998.122244,137
1643457812747,11998.1222481,163
1643457812773,11998.1222523,127
1643457812773,11998.1222554,61
1643457812773,11998.1222585,54
1643457812773,11998.1222618,42
1643457812773,11998.1222665,-14
1643457812773,11998.1222694,-42
1643457812773,11998.1222725,-42
1643457812773,11998.1222766,-66
1643457812773,11998.1222796,-80
1643457812773,11998.1222827,-68
1643457812798,11998.1222857,-70
1643457812798,11998.1222887,-63
1643457812798,11998.1222917,-49
1643457812798,11998.1222957,-70
1643457812798,11998.1222988,-75
1643457812798,11998.1223036,-44
1643457812798,11998.1223082,-44
1643457812798,11998.1223131,-56
1643457812798,11998.1223176,-33
1643457812798,11998.6737118,-40
1643457812825,11998.6737256,-68
1643457812825,11998.6737292,-40
1643457812825,11998.6737324,-11
1643457812825,11998.6737354,-35
1643457812825,11998.6737385,-56
1643457812825,11998.6737415,-66
1643457812825,11998.6737445,-85
1643457812825,11998.6737475,-92
1643457812825,11998.6737505,-70
1643457812825,11998.6737535,-52
1643457812856,11998.6737564,-56
1643457812856,11998.6737594,-70
1643457812856,11998.6737623,-87
1643457812856,11998.6737653,-70
1643457812856,11998.6737683,-35
1643457812856,11998.6737713,-37
1643457812856,11998.6737742,-56
1643457812856,11998.6737774,-44
1643457812856,11998.6737803,-30
1643457812856,11998.6737833,-40
1643457812885,11998.6737863,-42
1643457812885,11998.6737893,-35
1643457812885,11998.6737923,-33
1643457812885,11998.6737953,-30
1643457813303,11998.6737984,-23
1643457813303,11998.6738013,-35
1643457813303,11998.6738046,-56
1643457813303,11998.6738076,-80
1643457813303,11998.6738105,-94
1643457813303,11998.6738135,9
1643457813303,11998.6738166,300
1643457813303,11998.6738198,624
1643457813303,11998.6738228,654
1643457813303,11998.6738257,203
1643457813336,11998.6738287,-238
1643457813336,11998.6738317,-160
1643457813336,11998.6738347,2
1643457813336,11998.6738377,-75
1643457813336,11998.673841,-99
1643457813336,11998.6738439,-30
1643457813336,11998.6738469,-44
1643457813336,11998.6738498,-82
1643457813336,11998.6738527,-54
1643457813336,11998.6738557,-30
1643457813370,11998.6738587,-35
1643457813370,11998.6738618,-18
1643457813370,11998.6738647,-4
1643457813370,11998.6738676,-23
1643457813370,11998.6738705,-14
1643457813370,11998.6738736,23
1643457813370,11998.6738765,21
1643457813370,11998.6738795,-23
1643457813370,11998.6738824,-33
1643457813370,11998.6738855,14
1643457813403,11998.6738885,59
1643457813403,11998.6738915,52
1643457813403,11998.6738944,42
1643457813403,11998.6738974,63
1643457813403,11998.6739004,66
1643457813403,11998.6739033,68
1643457813403,11998.6739067,89
1643457813403,11998.6739097,94
1643457813403,11998.6739134,96
1643457813403,11998.6739169,111
1643457813436,11998.67392,101
1643457813436,11998.6739233,54
1643457813436,11998.6739265,18
1643457813436,11998.6739294,18
1643457813436,11998.6739325,9
1643457813436,11998.6739356,-37
1643457813436,11998.6739387,-82
1643457813436,11998.6739419,-85
1643457813436,11999.2713473,-73
1643457813436,11999.2713757,-85
1643457813472,11999.2714006,-96
1643457813472,11999.2714219,-92
1643457813472,11999.2714398,-82
1643457813472,11999.2714713,-96
1643457813472,11999.2714751,-137
1643457813472,11999.2714783,-146
1643457813472,11999.2714813,-113
1643457813472,11999.2714842,-101
1643457813472,11999.2714939,-94
1643457813472,11999.2714992,-78
1643457813506,11999.2715026,-75
1643457813506,11999.2715057,-70
1643457813506,11999.2716497,-54
1643457813506,11999.2716767,-44
1643457813506,11999.2716945,-52
1643457813506,11999.2717005,-70
1643457813506,11999.2717035,-78
1643457813506,11999.2717064,-66
1643457813506,11999.2717093,-52
1643457813506,11999.2717122,-40
1643457813543,11999.2717151,-42
1643457813543,11999.271718,-61
1643457813543,11999.2717209,-73
1643457813543,11999.2717238,-63
1643457813869,11999.2717267,-49
1643457813869,11999.2717296,-56
1643457813869,11999.2717326,-42
1643457813869,11999.2717355,-11
1643457813869,11999.2717385,-26
1643457813869,11999.2717414,-44
1643457813869,11999.2717443,-33
1643457813869,11999.2717472,-37
1643457813869,11999.2717501,-68
1643457813869,11999.271753,-63
1643457813904,11999.2717558,-26
1643457813904,11999.2717587,-16
1643457813904,11999.2717616,-33
1643457813904,11999.2717644,-37
1643457813904,11999.2717673,-70
1643457813904,11999.2717702,-120
1643457813904,11999.2718,-75
1643457813904,11999.2718042,182
1643457813904,11999.2718073,546
1643457813904,11999.2718104,666
1643457813937,11999.2718133,312
1643457813937,11999.2718162,-165
1643457813937,11999.271819,-212
1643457813937,11999.2718219,-56
1643457813937,11999.2718248,-73
1643457813937,11999.2718277,-94
1643457813937,11999.2718306,-56
1643457813937,11999.2718335,-59
1643457813937,11999.2718364,-63
1643457813937,11999.2718392,-59
1643457813972,11999.2718421,-66
1643457813972,11999.271845,-68
1643457813972,11999.2718479,-63
1643457813972,11999.2718508,-54
1643457813972,11999.2718537,-40
1643457813972,11999.2718566,-44
1643457813972,11999.2718595,-87
1643457813972,11999.2718623,-89
1643457813972,11999.2718652,-44
1643457813972,11999.2718681,-30
1643457814004,11999.2718709,-47
1643457814004,11999.2718738,-44
1643457814004,11999.2718766,-26
1643457814004,11999.2718796,2
1643457814004,11999.2718826,30
1643457814004,11999.2718855,18
1643457814004,11999.2718884,-2
1643457814004,11999.822136,49
1643457814004,11999.822149,104
1643457814004,11999.8221543,75
1643457814036,11999.8221595,33
1643457814036,11999.8221628,56
1643457814036,11999.8221678,59
1643457814036,11999.8221711,-4
1643457814036,11999.8221761,-33
1643457814036,11999.822181,-40
1643457814036,11999.8221859,-78
1643457814036,11999.8221892,-115
1643457814036,11999.8221942,-158
1643457814036,11999.8221976,-182
1643457814070,11999.8222025,-170
1643457814070,11999.8222072,-174
1643457814070,11999.8222121,-186
1643457814070,11999.8222154,-148
1643457814070,11999.8222186,-134
1643457814070,11999.8222236,-174
1643457814070,11999.8222287,-163
1643457814070,11999.822234,-118
1643457814070,11999.8222373,-130
1643457814070,11999.8222422,-134
1643457814103,11999.8222468,-89
1643457814103,11999.8222517,-82
1643457814103,11999.8222566,-127
1643457814103,11999.8222614,-134
1643457814403,11999.822318,-101
1643457814403,11999.82233,-127
1643457814403,11999.8223375,-151
1643457814403,11999.8223407,-111
1643457814403,11999.8223445,-101
1643457814403,11999.8223487,-104
1643457814403,11999.822352,-49
1643457814403,11999.822357,-59
1643457814403,11999.8223601,-113
1643457814403,11999.8223634,-92
1643457814435,11999.8223684,-73
1643457814435,11999.8223725,-94
1643457814435,11999.8223767,-87
1643457814435,11999.8223799,-66
1643457814435,11999.822385,-73
1643457814435,11999.8223898,-61
1643457814435,11999.8223947,-35
1643457814435,11999.8223995,-47
1643457814435,11999.8224044,-80
1643457814435,11999.8224087,-85
1643457814470,11999.8224136,-47
1643457814470,11999.8224167,-28
1643457814470,11999.8224199,-73
1643457814470,11999.8224251,-99
1643457814470,11999.8224298,-66
1643457814470,11999.8224347,-87
1643457814470,11999.822438,-144
1643457814470,11999.8224429,-96
1643457814470,11999.8224461,144
1643457814470,11999.8224511,496
1643457814500,11999.8224543,671
1643457814500,11999.8224592,373
1643457814500,11999.8224633,-144
1643457814500,11999.8224683,-234
1643457814500,11999.8224715,-18
1643457814500,11999.8224766,-21
1643457814500,11999.8224818,-89
1643457814500,11999.8224869,-16
1643457814500,11999.8224903,9
1643457814500,11999.8224953,-33
1643457814538,11999.8225026,-14
1643457814538,11999.8225421,9
1643457814538,11999.8225518,-11
1643457814538,11999.8225573,2
1643457814538,11999.8225608,23
1643457814538,11999.822566,26
1643457814538,12000.3739008,37
1643457814538,12000.373914,35
1643457814538,12000.3739206,26
1643457814538,12000.3739258,61
1643457814571,12000.373929,92
1643457814571,12000.3739331,56
1643457814571,12000.3739364,42
1643457814571,12000.3739405,96
1643457814571,12000.3739456,122
1643457814571,12000.373949,99
1643457814571,12000.3739539,92
1643457814571,12000.3739589,111
1643457814571,12000.3739641,134
1643457814571,12000.3739686,134
1643457814604,12000.3739751,106
1643457814604,12000.3739783,113
1643457814604,12000.3739824,144
1643457814604,12000.3739856,115
1643457814604,12000.3739899,78
1643457814604,12000.373993,78
1643457814604,12000.3739995,59
1643457814604,12000.3740026,-9
1643457814604,12000.3740058,-52
1643457814604,12000.3740109,-40
1643457814636,12000.3740138,-49
1643457814636,12000.374017,-80
1643457814636,12000.3740216,-56
1643457814636,12000.3740276,-37
1643457815051,12000.3740327,-54
1643457815051,12000.3740359,-44
1643457815051,12000.3740389,-49
1643457815051,12000.3740418,-66
1643457815051,12000.3740447,-35
1643457815051,12000.3740476,-7
1643457815051,12000.3740504,-28
1643457815051,12000.3740535,-52
1643457815051,12000.374057,-63
1643457815051,12000.3740599,-42
1643457815078,12000.3740627,-2
1643457815078,12000.3740656,-40
1643457815078,12000.3740685,-80
1643457815078,12000.3740714,-56
1643457815078,12000.3740752,-52
1643457815078,12000.3740783,-56
1643457815078,12000.3740812,-59
1643457815078,12000.3740846,-89
1643457815078,12000.3740875,-78
1643457815078,12000.374092,-49
1643457815105,12000.3740951,-106
1643457815105,12000.3740982,-151
1643457815105,12000.3741025,-101
1643457815105,12000.3741057,-68
1643457815105,12000.3741088,-113
1643457815105,12000.3741126,-130
1643457815105,12000.3741173,-104
1643457815105,12000.3741203,-113
1643457815105,12000.3741235,-113
1643457815105,12000.3741295,-89
1643457815136,12000.3741345,-89
1643457815136,12000.3741399,-101
1643457815136,12000.3741447,-113
1643457815136,12000.3741495,-118
1643457815136,12000.3741537,-113
1643457815136,12000.3741586,-113
1643457815136,12000.3741637,-134
1643457815136,12000.3741687,-156
1643457815136,12000.3741747,-137
1643457815136,12000.3741796,-132
1643457815170,12000.3741826,-179
1643457815170,12000.3741858,-153
1643457815170,12000.3741901,101
1643457815170,12000.3741934,453
1643457815170,12000.3741986,598
1643457815170,12001.0224507,321
1643457815170,12001.0224637,-153
1643457815170,12001.0224687,-269
1643457815170,12001.0224743,-94
1643457815170,12001.0224776,-80
1643457815201,12001.0224825,-127
1643457815201,12001.0224857,-70
1643457815201,12001.0224906,-59
1643457815201,12001.0224954,-125
1643457815201,12001.0225031,-130
1643457815201,12001.0225064,-82
1643457815201,12001.0225096,-61
1643457815201,12001.0225126,-52
1643457815201,12001.0225155,-66
1643457815201,12001.0225185,-82
1643457815235,12001.0225215,-37
1643457815235,12001.0225244,-7
1643457815235,12001.0225276,-37
1643457815235,12001.0225309,-26
1643457815235,12001.022534,21
1643457815235,12001.0225369,33
1643457815235,12001.0225399,37
1643457815235,12001.0225429,40
1643457815235,12001.0225458,44
1643457815235,12001.0225488,66
1643457815273,12001.0225517,56
1643457815273,12001.0225546,49
1643457815273,12001.0225575,101
1643457815273,12001.0225604,122
1643457815603,12001.0225633,85
1643457815603,12001.0225663,92
1643457815603,12001.0225692,158
1643457815603,12001.0225721,153
1643457815603,12001.022575,101
1643457815603,12001.022578,104
1643457815603,12001.0225809,92
1643457815603,12001.0225839,23
1643457815603,12001.0225868,-7
1643457815603,12001.0225897,7
1643457815636,12001.0225927,16
1643457815636,12001.0225957,9
1643457815636,12001.0225987,11
1643457815636,12001.0226016,33
1643457815636,12001.0226046,35
1643457815636,12001.0226075,30
1643457815636,12001.0226105,40
1643457815636,12001.0226136,30
1643457815636,12001.0226165,28
1643457815636,12001.0226194,66
1643457815675,12001.0226223,85
1643457815675,12001.0226252,82
1643457815675,12001.0226282,73
1643457815675,12001.0226311,54
1643457815675,12001.0226341,52
1643457815675,12001.022637,56
1643457815675,12001.0226399,44
1643457815675,12001.0226435,40
1643457815675,12001.0226465,59
1643457815675,12001.0226495,73
1643457815708,12001.0226525,75
1643457815708,12001.0226554,70
1643457815708,12001.0226583,35
1643457815708,12001.0226613,0
1643457815708,12001.0226643,33
1643457815708,12001.0226672,68
1643457815708,12001.0226704,44
1643457815708,12001.0226733,23
1643457815708,12001.0226763,18
1643457815708,12001.0226795,21
1643457815737,12001.0226824,52
1643457815737,12001.0226853,66
1643457815737,12001.0226882,40
1643457815737,12001.0226912,44
1643457815737,12001.5665125,56
1643457815737,12001.5665253,21
1643457815737,12001.5665288,18
1643457815737,12001.5665348,49
1643457815737,12001.566538,30
1643457815737,12001.5665431,0
1643457815772,12001.5665462,23
1643457815772,12001.5665513,44
1643457815772,12001.5665542,11
1643457815772,12001.5665865,-30
1643457815772,12001.566591,-66
1643457815772,12001.5665938,7
1643457815772,12001.5665967,295
1643457815772,12001.5665994,593
1643457815772,12001.5666024,598
1643457815772,12001.5666053,234
1643457815802,12001.5666142,-146
1643457815802,12001.5666176,-139
1643457815802,12001.5666204,-7
1643457815802,12001.5666232,-37
1643457815802,12001.566626,-70
1643457815802,12001.5666287,-87
1643457815802,12001.5666315,-120
1643457815802,12001.5666344,-82
1643457815802,12001.5666384,-14
1643457815802,12001.5666414,-37
1643457815837,12001.5666442,-49
1643457815837,12001.566647,16
1643457815837,12001.5666498,23
1643457815837,12001.5666531,-16
1643457816089,12001.5666558,-21
1643457816089,12001.5666585,-37
1643457816089,12001.5666613,-18
1643457816089,12001.566664,47
1643457816089,12001.5666668,75
1643457816089,12001.5666695,63
1643457816089,12001.5666723,42
1643457816089,12001.566675,61
1643457816089,12001.5666777,111
1643457816089,12001.5666804,120
1643457816116,12001.5666832,137
1643457816116,12001.566686,172
1643457816116,12001.5666887,132
1643457816116,12001.566706,122
1643457816116,12001.5667201,205
1643457816116,12001.5667245,200
1643457816116,12001.5667276,106
1643457816116,12001.5667305,113
1643457816116,12001.5667333,137
1643457816116,12001.5667361,66
1643457816144,12001.566739,21
1643457816144,12001.5667417,26
1643457816144,12001.5667447,-9
1643457816144,12001.5667475,-37
1643457816144,12001.5667503,-47
1643457816144,12001.5667531,-54
1643457816144,12001.566756,-21
1643457816144,12001.5667593,-4
1643457816144,12001.5667629,-30
1643457816144,12001.5667657,-47
1643457816174,12001.5667685,-42
1643457816174,12001.5667713,-35
1643457816174,12001.5667741,-14
1643457816174,12001.5667769,26
1643457816174,12001.5667797,28
1643457816174,12001.5667824,-2
1643457816174,12001.5667855,4
1643457816174,12001.5667888,11
1643457816174,12001.5667915,2
1643457816174,12001.5667943,7
1643457816202,12001.5667972,16
1643457816202,12001.5667999,30
1643457816202,12001.5668027,9
1643457816202,12002.0720916,-47
1643457816202,12002.0721055,-30
1643457816202,12002.0721106,26
1643457816202,12002.0721161,9
1643457816202,12002.0721194,-2
1643457816202,12002.0721226,28
1643457816202,12002.0721258,14
1643457816231,12002.0721309,-35
1643457816231,12002.0721344,-40
1643457816231,12002.0721387,-2
1643457816231,12002.0721417,35
1643457816231,12002.0721455,18
1643457816231,12002.0721488,-44
1643457816231,12002.0721532,-49
1643457816231,12002.0721593,-18
1643457816231,12002.0721631,-16
1643457816231,12002.0721683,0
1643457816259,12002.0721713,-16
1643457816259,12002.0721743,-54
1643457816259,12002.0721773,-4
1643457816259,12002.0721802,-7
1643457816259,12002.0721832,-139
1643457816259,12002.0721861,-108
1643457816259,12002.072189,203
1643457816259,12002.072192,534
1643457816259,12002.0721953,657
1643457816259,12002.0721997,397
1643457816287,12002.0722039,-89
1643457816287,12002.0722071,-222
1643457816287,12002.0722165,-56
1643457816287,12002.0722195,-49
1643457816761,12002.0722225,-78
1643457816761,12002.0722256,-9
1643457816761,12002.0722285,-2
1643457816761,12002.0722315,-63
1643457816761,12002.0722343,-70
1643457816761,12002.0722374,-21
1643457816761,12002.0722402,-16
1643457816761,12002.0722431,-35
1643457816761,12002.0722459,-16
1643457816761,12002.0722488,4
1643457816795,12002.0722518,7
1643457816795,12002.0722548,9
1643457816795,12002.0722577,9
1643457816795,12002.0722605,16
1643457816795,12002.0722643,42
1643457816795,12002.0722675,49
1643457816795,12002.0722717,28
1643457816795,12002.0722751,35
1643457816795,12002.0722782,89
1643457816795,12002.0722813,141
1643457816826,12002.0722864,141
1643457816826,12002.0722894,120
1643457816826,12002.0722926,139
1643457816826,12002.0722969,163
1643457816826,12002.072301,148
1643457816826,12002.0723042,141
1643457816826,12002.0723091,144
1643457816826,12002.0723139,139
1643457816826,12002.0723187,118
1643457816826,12002.0723221,68
1643457816858,12002.0723269,16
1643457816858,12002.0723301,-7
1643457816858,12002.0723349,-33
1643457816858,12002.0723521,-56
1643457816858,12002.0723573,-54
1643457816858,12002.0723604,-40
1643457816858,12002.0723636,-56
1643457816858,12002.0723689,-66
1643457816858,12002.072372,-40
1643457816858,12002.072377,-28
1643457816894,12002.0723801,-26
1643457816894,12002.0723833,-47
1643457816894,12002.7184917,-70
1643457816894,12002.7185088,-14
1643457816894,12002.7185124,37
1643457816894,12002.7185155,0
1643457816894,12002.7185186,-30
1643457816894,12002.7185215,-14
1643457816894,12002.7185243,-9
1643457816894,12002.7185272,-14
1643457816926,12002.7185301,7
1643457816926,12002.718533,-7
1643457816926,12002.7185359,-47
1643457816926,12002.7185387,-42
1643457816926,12002.7185416,-52
1643457816926,12002.7185456,-54
1643457816926,12002.7185504,-18
1643457816926,12002.7185537,-33
1643457816926,12002.7185583,-63
1643457816926,12002.7185612,-30
1643457816960,12002.718564,-11
1643457816960,12002.7185668,-33
1643457816960,12002.7185697,-14
1643457816960,12002.7185728,21
1643457816960,12002.7185758,-18
1643457816960,12002.7185789,-56
1643457816960,12002.7185819,-9
1643457816960,12002.718585,16
1643457816960,12002.7185879,-16
1643457816960,12002.7185907,-28
1643457816994,12002.718594,-21
1643457816994,12002.718597,-9
1643457816994,12002.7185999,-54
1643457816994,12002.7186027,-141
1643457817357,12002.7186055,7
1643457817357,12002.7186085,425
1643457817357,12002.7186113,704
1643457817357,12002.7186142,553
1643457817357,12002.718617,49
1643457817357,12002.7186199,-255
1643457817357,12002.7188159,-87
1643457817357,12002.7188208,23
1643457817357,12002.7188238,-82
1643457817357,12002.7188267,-87
1643457817392,12002.7188295,-47
1643457817392,12002.7188324,-54
1643457817392,12002.7188352,-21
1643457817392,12002.7188381,-11
1643457817392,12002.7188409,-37
1643457817392,12002.7188438,-14
1643457817392,12002.7188467,7
1643457817392,12002.7188495,-18
1643457817392,12002.7188523,-28
1643457817392,12002.7188551,-4
1643457817426,12002.718858,-7
1643457817426,12002.7188608,-7
1643457817426,12002.7188636,11
1643457817426,12002.7188666,11
1643457817426,12002.7188694,16
1643457817426,12002.7188722,37
1643457817426,12002.7188751,52
1643457817426,12002.718878,61
1643457817426,12002.7188808,82
1643457817426,12002.7188836,94
1643457817457,12002.7188865,104
1643457817457,12002.7188894,122
1643457817457,12002.7188923,127
1643457817457,12002.7188952,122
1643457817457,12002.718898,127
1643457817457,12002.7189009,122
1643457817457,12002.7189037,99
1643457817457,12002.7189066,80
1643457817457,12002.7189095,54
1643457817457,12002.7189124,0
1643457817489,12002.7189152,-56
1643457817489,12003.3165781,-70
1643457817489,12003.3165906,-56
1643457817489,12003.3165943,-52
1643457817489,12003.3166132,-42
1643457817489,12003.316623,-37
1643457817489,12003.3166268,-47
1643457817489,12003.31663,-37
1643457817489,12003.316633,-11
1643457817489,12003.316636,-33
1643457817525,12003.316639,-92
1643457817525,12003.3166421,-75
1643457817525,12003.316645,0
1643457817525,12003.3166481,9
1643457817525,12003.3166511,-23
1643457817525,12003.3166541,-23
1643457817525,12003.3166571,-33
1643457817525,12003.3166602,-54
1643457817525,12003.3166632,-49
1643457817525,12003.3166662,-35
1643457817558,12003.3166691,-37
1643457817558,12003.3166721,-66
1643457817558,12003.316675,-61
1643457817558,12003.3166779,-21
1643457817558,12003.3166808,-28
1643457817558,12003.3166838,-61
1643457817558,12003.3166874,-47
1643457817558,12003.3166903,-21
1643457817558,12003.3166933,-30
1643457817558,12003.3166962,-23
1643457817593,12003.3166992,-7
1643457817593,12003.3167021,-37
1643457817593,12003.316705,-40
1643457817593,12003.316708,11
1643457817803,12003.3167117,-4
1643457817803,12003.3167147,-33
1643457817803,12003.3167176,0
1643457817803,12003.3167206,0
1643457817803,12003.3167236,-23
1643457817803,12003.3167266,-23
1643457817803,12003.3167297,-68
1643457817803,12003.3167327,-113
1643457817803,12003.3167357,30
1643457817803,12003.3167387,356
1643457817830,12003.3167416,628
1643457817830,12003.3167447,581
1643457817830,12003.3167485,151
1643457817830,12003.3167515,-198
1643457817830,12003.3167545,-113
1643457817830,12003.3167574,-2
1643457817830,12003.3167604,-87
1643457817830,12003.3167633,-104
1643457817830,12003.3167663,-49
1643457817830,12003.3167692,-47
1643457817860,12003.3167726,-59
1643457817860,12003.3167767,-54
1643457817860,12003.3167799,-59
1643457817860,12003.3167842,-37
1643457817860,12003.3167873,7
1643457817860,12003.3167902,-2
1643457817860,12003.3167931,-40
1643457817860,12003.3167967,-23
1643457817860,12003.3168008,9
1643457817860,12003.3168063,-2
1643457817888,12003.3168093,-16
1643457817888,12003.3168132,2
1643457817888,12003.3168182,28
1643457817888,12003.3168219,56
1643457817888,12003.3168268,89
1643457817888,12003.3168299,94
1643457817888,12003.3168347,94
1643457817888,12003.3168391,113
1643457817888,12003.316844,130
1643457817888,12003.3168471,137
1643457817920,12003.7733001,139
1643457817920,12003.773315,139
1643457817920,12003.7733189,134
1643457817920,12003.773322,122
1643457817920,12003.7733249,104
1643457817920,12003.7733278,73
1643457817920,12003.7733307,23
1643457817920,12003.7733337,-30
1643457817920,12003.7733365,-70
1643457817920,12003.7733394,-101
1643457817952,12003.7733423,-111
1643457817952,12003.7733451,-94
1643457817952,12003.7733479,-82
1643457817952,12003.7733516,-89
1643457817952,12003.7733544,-101
1643457817952,12003.7733573,-96
1643457817952,12003.7733601,-68
1643457817952,12003.773363,-61
1643457817952,12003.7733658,-78
1643457817952,12003.7733881,-59
1643457817984,12003.7734809,-30
1643457817984,12003.7734945,-40
1643457817984,12003.7735013,-37
1643457817984,12003.7735047,-7
1643457817984,12003.7736009,-7
1643457817984,12003.7736232,-56
1643457817984,12003.7736275,-68
1643457817984,12003.7736305,-14
1643457817984,12003.7736335,14
1643457817984,12003.7736364,-23
1643457818012,12003.7736392,-52
1643457818012,12003.773642,-37
1643457818012,12003.7736449,-9
1643457818012,12003.7736477,-18
1643457818365,12003.7736505,-52
1643457818365,12003.7736533,-37
1643457818365,12003.7736561,4
1643457818365,12003.773659,18
1643457818365,12003.7736626,-7
1643457818365,12003.7736654,-40
1643457818365,12003.7736681,-44
1643457818365,12003.773671,-18
1643457818365,12003.7736738,-7
1643457818365,12003.7736766,-26
1643457818394,12003.7736794,-33
1643457818394,12003.7736824,-16
1643457818394,12003.7736852,-11
1643457818394,12003.7736881,-11
1643457818394,12003.7736908,-28
1643457818394,12003.7736941,-80
1643457818394,12003.7736969,-111
1643457818394,12003.7736997,37
1643457818394,12003.7737025,404
1643457818394,12003.7737054,711
1643457818421,12003.7737083,600
1643457818421,12003.7737111,101
1643457818421,12003.7737139,-196
1643457818421,12003.7737167,-61
1643457818421,12003.7737195,9
1643457818421,12003.7737224,-87
1643457818421,12003.7737251,-78
1643457818421,12003.7737279,-26
1643457818421,12003.7737307,-40
1643457818421,12003.7737335,-44
1643457818449,12003.7737363,-18
1643457818449,12003.7737391,-16
1643457818449,12003.7737419,-30
1643457818449,12003.7737447,-26
1643457818449,12003.7737475,0
1643457818449,12003.7737504,11
1643457818449,12003.7737531,-2
1643457818449,12003.7737559,-21
1643457818449,12003.7737588,-9
1643457818449,12004.3231776,23
1643457818476,12004.3231912,28
1643457818476,12004.3231952,21
1643457818476,12004.3231985,42
1643457818476,12004.3232017,68
1643457818476,12004.3232049,61
1643457818476,12004.3232087,82
1643457818476,12004.3232132,127
1643457818476,12004.3232176,125
1643457818476,12004.3232206,101
1643457818476,12004.3232236,118
1643457818502,12004.3232267,137
1643457818502,12004.3232298,94
1643457818502,12004.3232327,56
1643457818502,12004.323236,63
1643457818502,12004.3232393,44
1643457818502,12004.3232441,7
1643457818502,12004.3232484,-18
1643457818502,12004.3232517,-37
1643457818502,12004.3232562,-56
1643457818502,12004.3232591,-82
1643457818530,12004.3232623,-89
1643457818530,12004.3232667,-80
1643457818530,12004.3232697,-68
1643457818530,12004.3232727,-52
1643457818530,12004.3232988,-47
1643457818530,12004.3233154,-49
1643457818530,12004.3233227,-37
1643457818530,12004.3233262,-33
1643457818530,12004.3233302,-35
1643457818530,12004.3233332,-23
1643457818558,12004.3233362,-11
1643457818558,12004.3233392,-14
1643457818558,12004.3233422,-28
1643457818558,12004.3233452,-23
1643457818994,12004.3233482,-9
1643457818994,12004.3233511,-33
1643457818994,12004.323354,-42
1643457818994,12004.323357,-16
1643457818994,12004.3233599,-7
1643457818994,12004.3233628,-16
1643457818994,12004.3233658,-16
1643457818994,12004.3233688,-7
1643457818994,12004.323372,0
1643457818994,12004.323375,2
1643457819024,12004.3233779,-18
1643457819024,12004.3233809,-37
1643457819024,12004.3233838,-7
1643457819024,12004.3233867,14
1643457819024,12004.3234213,-2
1643457819024,12004.3234266,4
1643457819024,12004.3234302,14
1643457819024,12004.3234334,11
1643457819024,12004.3234364,28
1643457819024,12004.3234394,26
1643457819060,12004.3234424,-2
1643457819060,12004.3234453,2
1643457819060,12004.3234482,18
1643457819060,12004.3234512,4
1643457819060,12004.3234542,4
1643457819060,12004.3234572,21
1643457819060,12004.3234601,-7
1643457819060,12004.323463,-78
1643457819060,12004.3234667,-118
1643457819060,12004.3234696,9
1643457819093,12004.3234726,352
1643457819093,12004.3234756,664
1643457819093,12004.3234786,595
1643457819093,12004.3234816,127
1643457819093,12004.3234845,-205
1643457819093,12004.3234875,-96
1643457819093,12004.3234908,14
1643457819093,12004.3234986,-59
1643457819093,12004.973358,-63
1643457819093,12004.9733721,-18
1643457819124,12004.9733758,-26
1643457819124,12004.973379,-40
1643457819124,12004.973382,-40
1643457819124,12004.9733858,-33
1643457819124,12004.9733888,-11
1643457819124,12004.9733919,-7
1643457819124,12004.9733949,-16
1643457819124,12004.9733979,-14
1643457819124,12004.973401,-26
1643457819124,12004.9734048,-56
1643457819157,12004.9734102,-54
1643457819157,12004.9734135,-23
1643457819157,12004.9734185,2
1643457819157,12004.9734216,16
1643457819157,12004.9734265,21
1643457819157,12004.9734298,26
1643457819157,12004.9734346,42
1643457819157,12004.9734375,70
1643457819157,12004.9734404,96
1643457819157,12004.9734448,104
1643457819193,12004.9734479,92
1643457819193,12004.9734512,85
1643457819193,12004.9735396,87
1643457819193,12004.9735451,94
1643457819193,12004.9735482,111
1643457819193,12004.9735511,99
1643457819193,12004.973554,42
1643457819193,12004.9735571,-2
1643457819193,12004.9735599,-7
1643457819193,12004.9735629,-16
1643457819227,12004.9735657,-54
1643457819227,12004.9735686,-75
1643457819227,12004.9735715,-63
1643457819227,12004.9735744,-61
1643457819443,12004.9735772,-78
1643457819443,12004.9735801,-82
1643457819443,12004.9735829,-73
1643457819443,12004.9735858,-66
1643457819443,12004.9735888,-49
1643457819443,12004.9735918,-30
1643457819443,12004.9735947,-35
1643457819443,12004.9735976,-47
1643457819443,12004.9736005,-37
1643457819443,12004.9736034,-26
1643457819469,12004.9736063,-18
1643457819469,12004.9736091,-16
1643457819469,12004.9736119,-21
1643457819469,12004.9736147,-23
1643457819469,12004.9736176,-16
1643457819469,12004.9736205,-16
1643457819469,12004.9736234,-16
1643457819469,12004.9736262,-11
1643457819469,12004.9736291,-14
1643457819469,12004.9736319,-30
1643457819496,12004.9736348,-35
1643457819496,12004.9736376,-23
1643457819496,12004.9736406,-16
1643457819496,12004.9736434,-26
1643457819496,12004.9736463,-30
1643457819496,12004.9736492,-23
1643457819496,12004.9736521,-9
1643457819496,12004.9736549,-9
1643457819496,12004.9736577,-14
1643457819496,12004.9736607,4
1643457819528,12004.9736636,9
1643457819528,12004.9736664,-11
1643457819528,12004.9736693,-18
1643457819528,12004.9736721,-9
1643457819528,12004.9736751,-4
1643457819528,12004.9736779,-4
1643457819528,12004.9736808,0
1643457819528,12005.4232091,-4
1643457819528,12005.4232212,-16
1643457819528,12005.4232248,-47
1643457819556,12005.4232279,-99
1643457819556,12005.4232309,-61
1643457819556,12005.423234,193
1643457819556,12005.423237,534
1643457819556,12005.4232401,628
1643457819556,12005.4232431,312
1643457819556,12005.423246,-115
1643457819556,12005.4232489,-172
1643457819556,12005.4232519,-35
1643457819556,12005.4232548,-49
1643457819583,12005.4232577,-82
1643457819583,12005.4232607,-56
1643457819583,12005.4232636,-66
1643457819583,12005.4232665,-87
1643457819583,12005.4232695,-75
1643457819583,12005.4232724,-70
1643457819583,12005.4232753,-73
1643457819583,12005.4232782,-61
1643457819583,12005.4232811,-66
1643457819583,12005.423284,-92
1643457819614,12005.4232869,-89
1643457819614,12005.4232899,-68
1643457819614,12005.4232928,-66
1643457819614,12005.4232957,-59
1643457819614,12005.4232986,-35
1643457819614,12005.4233015,-26
1643457819614,12005.4233045,-21
1643457819614,12005.4233076,0
1643457819614,12005.4233105,28
1643457819614,12005.4233135,44
1643457819642,12005.4233164,56
1643457819642,12005.4233194,78
1643457819642,12005.4233223,96
1643457819642,12005.4233252,106
1643457820039,12005.4233281,108
1643457820039,12005.423331,111
1643457820039,12005.4233339,104
1643457820039,12005.4233368,89
1643457820039,12005.4233397,66
1643457820039,12005.4233427,28
1643457820039,12005.423404,-14
1643457820039,12005.4234111,-42
1643457820039,12005.4234145,-63
1643457820039,12005.4234177,-85
1643457820067,12005.4234207,-99
1643457820067,12005.4234236,-104
1643457820067,12005.4234266,-94
1643457820067,12005.4234296,-85
1643457820067,12005.4234324,-82
1643457820067,12005.4234354,-75
1643457820067,12005.4234383,-68
1643457820067,12005.4234412,-66
1643457820067,12005.4234442,-59
1643457820067,12005.4234471,-47
1643457820095,12005.42345,-42
1643457820095,12005.423453,-40
1643457820095,12005.4234559,-33
1643457820095,12005.4234588,-28
1643457820095,12005.4234617,-23
1643457820095,12005.4234646,-23
1643457820095,12005.4234675,-26
1643457820095,12005.4234704,-23
1643457820095,12005.4234733,-23
1643457820095,12005.4234761,-23
1643457820129,12005.423479,-21
1643457820129,12005.4234819,-16
1643457820129,12005.4234847,-18
1643457820129,12005.4234876,-21
1643457820129,12005.4234905,-23
1643457820129,12005.4234934,-28
1643457820129,12006.0207614,-21
1643457820129,12006.0207744,-7
1643457820129,12006.020778,-9
1643457820129,12006.0207812,-9
1643457820160,12006.020784,-2
1643457820160,12006.020787,-14
1643457820160,12006.0207899,-30
1643457820160,12006.020793,-49
1643457820160,12006.0207958,-68
1643457820160,12006.0207999,-68
1643457820160,12006.0208027,-66
1643457820160,12006.0208056,-68
1643457820160,12006.0208085,-66
1643457820160,12006.0208113,-75
1643457820193,12006.0208142,-125
1643457820193,12006.020817,-153
1643457820193,12006.0208199,-18
1643457820193,12006.0208228,312
1643457820193,12006.0208257,598
1643457820193,12006.0208286,529
1643457820193,12006.0208315,92
1643457820193,12006.0208343,-215
1643457820193,12006.0208374,-125
1643457820193,12006.0208542,-37
1643457820228,12006.0208612,-94
1643457820228,12006.0208647,-89
1643457820228,12006.0208679,-52
1643457820228,12006.0208717,-66
1643457820228,12006.0208764,-73
1643457820228,12006.0208796,-63
1643457820228,12006.0208827,-59
1643457820228,12006.0208855,-54
1643457820228,12006.0208883,-47
1643457820228,12006.0208912,-42
1643457820262,12006.020894,-37
1643457820262,12006.0208972,-33
1643457820262,12006.0209,-28
1643457820262,12006.0209039,-23
1643457820592,12006.0209066,-18
1643457820592,12006.0209433,-9
1643457820592,12006.0209486,0
1643457820592,12006.0209518,11
1643457820592,12006.0209549,28
1643457820592,12006.0209579,47
1643457820592,12006.0209608,66
1643457820592,12006.0209638,78
1643457820592,12006.0210035,85
1643457820592,12006.021009,99
1643457820625,12006.021012,106
1643457820625,12006.0210152,106
1643457820625,12006.021018,106
1643457820625,12006.0210209,99
1643457820625,12006.0210238,80
1643457820625,12006.0210267,54
1643457820625,12006.0210295,23
1643457820625,12006.0210324,-4
1643457820625,12006.0210353,-30
1643457820625,12006.0210382,-47
1643457820659,12006.021041,-54
1643457820659,12006.0210439,-61
1643457820659,12006.0210468,-63
1643457820659,12006.0210496,-54
1643457820659,12006.0210525,-44
1643457820659,12006.0210554,-40
1643457820659,12006.0210583,-35
1643457820659,12006.0210612,-33
1643457820659,12006.0210641,-28
1643457820659,12006.021067,-18
1643457820691,12006.0210699,-9
1643457820691,12006.0210728,-14
1643457820691,12006.0210757,-14
1643457820691,12006.0210786,-9
1643457820691,12006.0210815,-7
1643457820691,12006.5677337,-4
1643457820691,12006.5677463,-7
1643457820691,12006.5677513,-16
1643457820691,12006.567758,-21
1643457820691,12006.5677614,-14
1643457820725,12006.5677646,-14
1643457820725,12006.5677701,-26
1643457820725,12006.5677735,-23
1643457820725,12006.5677787,-16
1643457820725,12006.5677821,-26
1643457820725,12006.5677873,-28
1643457820725,12006.5677908,-30
1643457820725,12006.5677958,-52
1643457820725,12006.5677992,-54
1643457820725,12006.5678042,-28
1643457820757,12006.5678077,-23
1643457820757,12006.5678127,-30
1643457820757,12006.5678161,-23
1643457820757,12006.5678211,-26
1643457820757,12006.5678244,-35
1643457820757,12006.5678296,-44
1643457820757,12006.5678329,-52
1643457820757,12006.567838,-40
1643457820757,12006.5678413,-7
1643457820757,12006.5678463,14
1643457820792,12006.5678497,-2
1643457820792,12006.5678546,-42
1643457820792,12006.5678579,-85
1643457820792,12006.5678628,-66
1643457820792,12006.5678663,134
1643457820792,12006.5678712,475
1643457820792,12006.5678746,633
1643457820792,12006.5678797,347
1643457820792,12006.5678831,-101
1643457820792,12006.5678884,-184
1643457820826,12006.5678917,-37
1643457820826,12006.5678969,-40
1643457820826,12006.5679003,-94
1643457820826,12006.5679054,-68
1643457821191,12006.5679089,-49
1643457821191,12006.5679121,-59
1643457821191,12006.5679151,-47
1643457821191,12006.5679182,-47
1643457821191,12006.5679211,-52
1643457821191,12006.5679241,-30
1643457821191,12006.5679273,-21
1643457821191,12006.5679305,-28
1643457821191,12006.5679334,-4
1643457821191,12006.5679364,26
1643457821224,12006.5679395,26
1643457821224,12006.5679426,14
1643457821224,12006.5679457,16
1643457821224,12006.5679488,33
1643457821224,12006.5679518,49
1643457821224,12006.5679548,59
1643457821224,12006.5679579,68
1643457821224,12006.5679609,92
1643457821224,12006.5679639,118
1643457821224,12006.5679669,127
1643457821257,12006.5679699,134
1643457821257,12006.5679729,144
1643457821257,12006.5679759,141
1643457821257,12006.5679789,137
1643457821257,12006.5679819,132
1643457821257,12006.5679849,104
1643457821257,12006.5679878,70
1643457821257,12006.567991,44
1643457821257,12006.5679941,2
1643457821257,12006.5679971,-35
1643457821293,12006.5680004,-42
1643457821293,12006.5680035,-52
1643457821293,12006.5680065,-70
1643457821293,12006.5680095,-68
1643457821293,12007.1722066,-49
1643457821293,12007.1722201,-52
1643457821293,12007.1722255,-56
1643457821293,12007.1722305,-49
1643457821293,12007.1722342,-68
1643457821293,12007.1722371,-104
1643457821326,12007.1722413,-94
1643457821326,12007.1722442,-44
1643457821326,12007.1722471,-21
1643457821326,12007.17225,-37
1643457821326,12007.1722529,-40
1643457821326,12007.1722558,-23
1643457821326,12007.1722587,-23
1643457821326,12007.1722616,-30
1643457821326,12007.1722645,-21
1643457821326,12007.1722673,-11
1643457821357,12007.1722702,-21
1643457821357,12007.1722731,-14
1643457821357,12007.172276,2
1643457821357,12007.1722789,-4
1643457821357,12007.1722818,-23
1643457821357,12007.1722847,-23
1643457821357,12007.1722876,-18
1643457821357,12007.1722904,-18
1643457821357,12007.1722934,-16
1643457821357,12007.1722963,-7
1643457821390,12007.1722995,4
1643457821390,12007.1723042,7
1643457821390,12007.172307,0
1643457821390,12007.17231,-14
1643457821390,12007.1723151,-21
1643457821390,12007.1723193,-9
1643457821390,12007.1723222,14
1643457821390,12007.1723251,14
1643457821390,12007.172328,4
1643457821390,12007.172331,9
1643457821428,12007.1723339,9
1643457821428,12007.1723366,-2
1643457821428,12007.1723395,-33
1643457821428,12007.1723425,-92
1643457821891,12007.1723457,-82
1643457821891,12007.1723485,160
1643457821891,12007.1723512,560
1643457821891,12007.1723539,796
1643457821891,12007.1723566,574
1643457821891,12007.1723595,33
1643457821891,12007.1723622,-186
1643457821891,12007.1723649,-35
1643457821891,12007.1723676,-18
1643457821891,12007.1723703,-82
1643457821919,12007.172373,-40
1643457821919,12007.1723757,-23
1643457821919,12007.1723783,-56
1643457821919,12007.172381,-37
1643457821919,12007.1723838,2
1643457821919,12007.1723865,4
1643457821919,12007.1723893,-4
1643457821919,12007.1723921,-9
1643457821919,12007.1723949,-21
1643457821919,12007.1723975,-21
1643457821948,12007.1724016,11
1643457821948,12007.1724045,21
1643457821948,12007.1724075,-9
1643457821948,12007.1724105,0
1643457821948,12007.1724134,49
1643457821948,12007.1724163,49
1643457821948,12007.1724193,23
1643457821948,12007.1724235,54
1643457821948,12007.1724265,101
1643457821948,12007.1724303,85
1643457821976,12007.1724333,68
1643457821976,12007.1724361,120
1643457821976,12007.172439,167
1643457821976,12007.8668382,156
1643457821976,12007.8668489,132
1643457821976,12007.8668525,118
1643457821976,12007.8668557,99
1643457821976,12007.8668587,75
1643457821976,12007.8668687,42
1643457821976,12007.866872,4
1643457822004,12007.866875,-28
1643457822004,12007.8668783,-44
1643457822004,12007.8668813,-61
1643457822004,12007.8668843,-73
1643457822004,12007.8668874,-68
1643457822004,12007.8668904,-70
1643457822004,12007.8668934,-73
1643457822004,12007.8668971,-44
1643457822004,12007.8669006,-42
1643457822004,12007.8669036,-85
1643457822032,12007.8669067,-92
1643457822032,12007.8669097,-66
1643457822032,12007.8669127,-54
1643457822032,12007.8669157,-59
1643457822032,12007.8669187,-52
1643457822032,12007.8669218,-37
1643457822032,12007.8669247,-28
1643457822032,12007.8669278,-23
1643457822032,12007.867019,-16
1643457822032,12007.8670244,-14
1643457822058,12007.867028,-18
1643457822058,12007.8670311,-16
1643457822058,12007.8670342,-14
1643457822058,12007.8670372,-11
1643457822058,12007.8670402,-7
1643457822058,12007.8670432,-4
1643457822058,12007.8670474,-4
1643457822058,12007.8670503,-4
1643457822058,12007.8670532,-4
1643457822058,12007.8670562,-4
1643457822084,12007.8670592,-4
1643457822084,12007.8670631,-7
1643457822084,12007.8670663,4
1643457822084,12007.8670699,18
1643457822249,12007.8670736,11
1643457822249,12007.8670766,0
1643457822249,12007.8670796,4
1643457822249,12007.8670825,7
1643457822249,12007.8670855,9
1643457822249,12007.8670884,9
1643457822249,12007.8670914,4
1643457822249,12007.8670944,11
1643457822249,12007.8670974,16
1643457822249,12007.8671003,16
1643457822276,12007.8671034,11
1643457822276,12007.8671063,-40
1643457822276,12007.8671093,-111
1643457822276,12007.8671124,-44
1643457822276,12007.8671155,257
1643457822276,12007.8671185,619
1643457822276,12007.8671215,702
1643457822276,12007.8671245,323
1643457822276,12007.8671276,-144
1643457822276,12007.8671306,-163
1643457822304,12007.8671336,-18
1643457822304,12007.8671366,-66
1643457822304,12007.8671396,-80
1643457822304,12007.8671426,-26
1643457822304,12007.8671456,-37
1643457822304,12007.8671782,-52
1643457822304,12007.8672604,-33
1643457822304,12007.8672668,-37
1643457822304,12007.86727,-49
1643457822304,12007.8672731,-40
1643457822338,12007.8672761,-26
1643457822338,12007.8672791,-2
1643457822338,12008.2220013,18
1643457822338,12008.2220137,11
1643457822338,12008.2220193,4
1643457822338,12008.2220245,21
1643457822338,12008.2220277,26
1643457822338,12008.2220308,26
1643457822338,12008.2220339,40
1643457822338,12008.2220369,54
1643457822370,12008.22204,54
1643457822370,12008.222043,66
1643457822370,12008.2220463,87
1643457822370,12008.2220519,104
1643457822370,12008.222056,111
1643457822370,12008.222061,108
1643457822370,12008.2220658,99
1643457822370,12008.2220708,80
1643457822370,12008.2220754,78
1643457822370,12008.2220796,89
1643457822404,12008.2220827,70
1643457822404,12008.2220858,28
1643457822404,12008.222089,-7
1643457822404,12008.2220941,-42
1643457822404,12008.2220971,-68
1643457822404,12008.2221002,-70
1643457822404,12008.2221033,-70
1643457822404,12008.2221063,-78
1643457822404,12008.2221095,-78
1643457822404,12008.2221126,-75
1643457822438,12008.2221169,-68
1643457822438,12008.2221201,-54
1643457822438,12008.2221242,-52
1643457822438,12008.2221274,-54
1643457822438,12008.2221314,-54
1643457822438,12008.2221346,-54
1643457822438,12008.2221377,-54
1643457822438,12008.2221407,-49
1643457822438,12008.2221438,-40
1643457822438,12008.2221471,-33
1643457822471,12008.2221512,-37
1643457822471,12008.2221543,-42
1643457822471,12008.2221574,-37
1643457822471,12008.2221606,-33
1643457823039,12008.2221657,-33
1643457823039,12008.2221696,-33
1643457823039,12008.2221727,-37
1643457823039,12008.2221757,-42
1643457823039,12008.2221786,-42
1643457823039,12008.2221815,-40
1643457823039,12008.2221843,-40
1643457823039,12008.2221872,-35
1643457823039,12008.22219,-26
1643457823039,12008.2221928,-21
1643457823067,12008.2221956,-28
1643457823067,12008.2221985,-35
1643457823067,12008.2222014,-37
1643457823067,12008.2222042,-33
1643457823067,12008.2222071,-26
1643457823067,12008.22221,-14
1643457823067,12008.2222129,-11
1643457823067,12008.2222158,-7
1643457823067,12008.2222187,0
1643457823067,12008.2222217,-11
1643457823096,12008.2222246,-23
1643457823096,12008.2222275,-11
1643457823096,12008.2222304,-2
1643457823096,12008.2222333,-14
1643457823096,12008.2222361,-21
1643457823096,12008.222239,-18
1643457823096,12008.2222419,-16
1643457823096,12008.2222447,-37
1643457823096,12008.2222475,-94
1643457823096,12008.2222504,-118
1643457823124,12008.2222538,42
1643457823124,12009.0195479,373
1643457823124,12009.0195599,624
1643457823124,12009.0195635,515
1643457823124,12009.0195667,61
1643457823124,12009.0195698,-215
1643457823124,12009.0195728,-101
1643457823124,12009.0195758,-52
1643457823124,12009.0195795,-139
1643457823124,12009.0195825,-118
1643457823151,12009.0195855,-63
1643457823151,12009.0195885,-82
1643457823151,12009.0195915,-89
1643457823151,12009.0195945,-63
1643457823151,12009.0195976,-54
1643457823151,12009.0196007,-59
1643457823151,12009.0196036,-52
1643457823151,12009.0196072,-37
1643457823151,12009.0196102,-33
1643457823151,12009.0196132,-33
1643457823179,12009.0196163,-26
1643457823179,12009.0196499,-11
1643457823179,12009.01968,-2
1643457823179,12009.0196875,7
1643457823179,12009.0196908,14
1643457823179,12009.0196938,26
1643457823179,12009.0196969,37
1643457823179,12009.0197,47
1643457823179,12009.019703,61
1643457823179,12009.0197067,82
1643457823206,12009.0197097,99
1643457823206,12009.0197135,106
1643457823206,12009.0197165,108
1643457823206,12009.0197194,108
1643457823206,12009.0197224,108
1643457823206,12009.0197254,104
1643457823206,12009.0197284,92
1643457823206,12009.0197316,68
1643457823206,12009.0197347,35
1643457823206,12009.0197377,-7
1643457823233,12009.0197415,-40
1643457823233,12009.0197446,-56
1643457823233,12009.0197552,-66
1643457823233,12009.0197583,-70
1643457823459,12009.0197613,-66
1643457823459,12009.0197643,-63
1643457823459,12009.0197676,-54
1643457823459,12009.0197709,-47
1643457823459,12009.0197739,-47
1643457823459,12009.0197768,-40
1643457823459,12009.0197801,-30
1643457823459,12009.019783,-23
1643457823459,12009.0197859,-21
1643457823459,12009.0197889,-23
1643457823484,12009.0197918,-21
1643457823484,12009.0197952,-4
1643457823484,12009.0197988,-4
1643457823484,12009.0198018,-18
1643457823484,12009.0198056,-18
1643457823484,12009.0198086,-11
1643457823484,12009.0198122,-11
1643457823484,12009.0198152,-7
1643457823484,12009.0198183,-7
1643457823484,12009.0198212,-11
1643457823510,12009.019825,-4
1643457823510,12009.0198282,-2
1643457823510,12009.0198311,-9
1643457823510,12009.0198341,-11
1643457823510,12009.019837,-7
1643457823510,12009.01984,-11
1643457823510,12009.0198429,-14
1643457823510,12009.0198459,-4
1643457823510,12009.0198906,-2
1643457823510,12009.0199016,-2
1643457823537,12009.422706,-2
1643457823537,12009.4227184,-4
1643457823537,12009.4227217,-9
1643457823537,12009.4227247,-7
1643457823537,12009.4227277,0
1643457823537,12009.4227311,7
1643457823537,12009.4227344,16
1643457823537,12009.4227372,23
1643457823537,12009.42274,16
1643457823537,12009.4227429,0
1643457823569,12009.4227462,-9
1643457823569,12009.422749,-18
1643457823569,12009.4227518,-21
1643457823569,12009.4227546,-11
1643457823569,12009.4227574,-4
1643457823569,12009.4227601,-16
1643457823569,12009.4227629,-30
1643457823569,12009.4227656,-70
1643457823569,12009.4227684,-122
1643457823569,12009.4227716,-35
1643457823596,12009.4227748,267
1643457823596,12009.4227776,574
1643457823596,12009.4227803,586
1643457823596,12009.4227831,208
1643457823596,12009.4227859,-182
1643457823596,12009.4227886,-156
1643457823596,12009.4227914,-16
1643457823596,12009.4227942,-63
1643457823596,12009.422797,-87
1643457823596,12009.4227998,-40
1643457823623,12009.4228026,-40
1643457823623,12009.4228054,-63
1643457823623,12009.4228082,-52
1643457823623,12009.4228109,-33
1643457823623,12009.4228136,-30
1643457823623,12009.4228164,-23
1643457823623,12009.4228191,-16
1643457823623,12009.4228219,-26
1643457823623,12009.4228246,-35
1643457823623,12009.4228273,-18
1643457823648,12009.42283,-2
1643457823648,12009.4228329,2
1643457823648,12009.4228356,11
1643457823648,12009.4228384,23
1643457823949,12009.4228412,37
1643457823949,12009.4228439,49
1643457823949,12009.4228467,56
1643457823949,12009.4228495,61
1643457823949,12009.4228523,78
1643457823949,12009.4228551,92
1643457823949,12009.422858,106
1643457823949,12009.4228607,113
1643457823949,12009.4228635,115
1643457823949,12009.4228662,115
1643457823981,12009.422869,118
1643457823981,12009.4228718,108
1643457823981,12009.4228745,87
1643457823981,12009.4228772,56
1643457823981,12009.42288,26
1643457823981,12009.4228828,-2
1643457823981,12009.4228855,-28
1643457823981,12009.4228883,-40
1643457823981,12009.4228911,-42
1643457823981,12009.4228939,-49
1643457824012,12009.4228974,-52
1643457824012,12009.4229004,-40
1643457824012,12009.4229032,-33
1643457824012,12009.4229063,-30
1643457824012,12009.4229094,-23
1643457824012,12009.4229122,-18
1643457824012,12009.422915,-16
1643457824012,12009.4229178,-11
1643457824012,12009.4229208,-7
1643457824012,12009.9235878,0
1643457824045,12009.9236032,7
1643457824045,12009.9236334,0
1643457824045,12009.923683,-7
1643457824045,12009.9237134,-7
1643457824045,12009.9237232,-9
1643457824045,12009.9237266,-16
1643457824045,12009.9237297,-16
1643457824045,12009.9237325,-11
1643457824045,12009.9237354,-11
1643457824045,12009.9237384,-23
1643457824081,12009.9237413,-23
1643457824081,12009.9237441,-9
1643457824081,12009.9237469,-9
1643457824081,12009.9237498,-11
1643457824081,12009.9237526,-11
1643457824081,12009.9237554,-35
1643457824081,12009.9237582,-61
1643457824081,12009.923761,-56
1643457824081,12009.9237638,-40
1643457824081,12009.9237667,-44
1643457824112,12009.9237695,-56
1643457824112,12009.9237725,-59
1643457824112,12009.9237753,-63
1643457824112,12009.9237781,-61
1643457824112,12009.9237809,-47
1643457824112,12009.9237837,-33
1643457824112,12009.9237865,-26
1643457824112,12009.9237967,-21
1643457824112,12009.9238123,-33
1643457824112,12009.9238587,-44
1643457824145,12009.9241391,-37
1643457824145,12009.9241472,-28
1643457824145,12009.9241509,-33
1643457824145,12009.924154,-33
1643457824145,12009.924157,-28
1643457824145,12009.9241602,-28
1643457824145,12009.9241631,-49
1643457824145,12009.9241661,-104
1643457824145,12009.924169,-106
1643457824145,12009.9241719,87
1643457824186,12009.9241748,411
1643457824186,12009.9241778,612
1643457824186,12009.9241806,451
1643457824186,12009.9241835,0
1643457825003,12009.9241865,-208
1643457825003,12009.9241897,-61
1643457825003,12009.9241926,-14
1643457825003,12009.9241955,-78
1643457825003,12009.9241983,-52
1643457825003,12009.9242015,-21
1643457825003,12009.9242043,-40
1643457825003,12009.9242072,-37
1643457825003,12009.9242101,-11
1643457825003,12009.924213,-7
1643457825030,12009.9242158,-16
1643457825030,12009.9242187,-11
1643457825030,12009.9242216,2
1643457825030,12009.9242245,4
1643457825030,12009.9242274,7
1643457825030,12009.9242303,23
1643457825030,12009.9242332,35
1643457825030,12009.924236,37
1643457825030,12009.9242389,42
1643457825030,12009.9242417,47
1643457825063,12009.9242446,61
1643457825063,12009.9242475,80
1643457825063,12009.9242503,92
1643457825063,12009.9242531,101
1643457825063,12009.9242561,115
1643457825063,12009.924259,125
1643457825063,12009.9242619,130
1643457825063,12009.9242649,137
1643457825063,12010.9665409,141
1643457825063,12010.9665519,137
1643457825089,12010.9665555,127
1643457825089,12010.9665586,113
1643457825089,12010.9665615,94
1643457825089,12010.9665643,59
1643457825089,12010.9665671,26
1643457825089,12010.9665705,0
1643457825089,12010.9665735,-44
1643457825089,12010.9665763,-89
1643457825089,12010.9665791,-87
1643457825089,12010.966582,-68
1643457825118,12010.9670669,-73
1643457825118,12010.9670849,-73
1643457825118,12010.9670892,-54
1643457825118,12010.9670925,-52
1643457825118,12010.9670955,-66
1643457825118,12010.9670986,-61
1643457825118,12010.9671016,-44
1643457825118,12010.9671046,-42
1643457825118,12010.9671076,-44
1643457825118,12010.9671106,-42
1643457825145,12010.9671136,-35
1643457825145,12010.9671165,-28
1643457825145,12010.9671316,-26
1643457825145,12010.967144,-21
1643457825145,12010.9671624,-23
1643457825145,12010.9671775,-26
1643457825145,12010.9671808,-28
1643457825145,12010.9671838,-30
1643457825145,12010.9671866,-26
1643457825145,12010.9671894,-21
1643457825172,12010.9671922,-28
1643457825172,12010.9671949,-35
1643457825172,12010.9671977,-35
1643457825172,12010.9672004,-37
1643457825172,12010.9672032,-37
1643457825172,12010.967206,-26
1643457825172,12010.9672087,-23
1643457825172,12010.9672115,-28
1643457825172,12010.9672143,-28
1643457825172,12010.967217,-30
1643457825201,12010.9672198,-30
1643457825201,12010.9672225,-33
1643457825201,12010.9672253,-28
1643457825201,12010.9672282,-18
1643457825201,12010.9672309,-9
1643457825201,12010.9672337,-2
1643457825201,12010.9672366,11
1643457825201,12010.9672394,14
1643457825201,12010.9672421,-7
1643457825201,12010.9672449,-26
1643457825231,12010.9672476,-11
1643457825231,12010.9672504,2
1643457825231,12010.9672533,-2
1643457825231,12010.9672561,-7
1643457825231,12010.967259,0
1643457825231,12010.9672618,-2
1643457825231,12010.9672646,-40
1643457825231,12010.9672674,-85
1643457825231,12010.9672702,-23
1643457825231,12010.9672729,236
1643457825259,12010.9672922,543
1643457825259,12010.9673122,617
1643457825259,12010.9673176,295
1643457825259,12010.9673209,-122
1643457825259,12010.9673239,-151
1643457825259,12010.9673268,-9
1643457825259,12010.9673297,-42
1643457825259,12010.9673327,-68
1643457825259,12010.9673356,-21
1643457825259,12010.9673385,-14
1643457825285,12010.9673415,-26
1643457825285,12011.1728035,-18
1643457825285,12011.1728229,-14
1643457825285,12011.1728266,-11
1643457825285,12011.1728298,-2
1643457825285,12011.172833,2
1643457825285,12011.1728359,4
1643457825285,12011.1728389,9
1643457825285,12011.1728418,11
1643457825285,12011.1728449,4
1643457825313,12011.1728481,2
1643457825313,12011.1728528,18
1643457825313,12011.1728557,35
1643457825313,12011.1728587,30
1643457825313,12011.1728617,14
1643457825313,12011.1728646,7
1643457825313,12011.1728675,28
1643457825313,12011.1728704,49
1643457825313,12011.1728733,61
1643457825313,12011.1728762,75
1643457825340,12011.1728791,80
1643457825340,12011.172882,82
1643457825340,12011.1728849,89
1643457825340,12011.1728878,92
1643457825340,12011.1728907,85
1643457825340,12011.1728944,73
1643457825340,12011.1728974,42
1643457825340,12011.1729003,-4
1643457825340,12011.1729034,-44
1643457825340,12011.1729063,-59
1643457825366,12011.1729091,-70
1643457825366,12011.172912,-82
1643457825366,12011.1729149,-87
1643457825366,12011.1729179,-87
1643457825366,12011.1729208,-78
1643457825366,12011.1729236,-66
1643457825366,12011.1729265,-59
1643457825366,12011.1729295,-49
1643457825366,12011.1729328,-42
1643457825366,12011.1729357,-37
1643457825396,12011.1729385,-33
1643457825396,12011.1729414,-33
1643457825396,12011.1729443,-26
1643457825396,12011.1729473,-18
1643457825396,12011.1729502,-16
1643457825396,12011.1729531,-23
1643457825396,12011.1729561,-28
1643457825396,12011.172959,-26
1643457825747,12011.172962,-26
1643457825747,12011.1729649,-30
1643457825747,12011.1729678,-30
1643457825747,12011.1729707,-35
1643457825747,12011.1729736,-42
1643457825747,12011.1729765,-37
1643457825747,12011.1729794,-28
1643457825747,12011.1729823,-28
1643457825747,12011.1729851,-35
1643457825747,12011.172988,-35
1643457825781,12011.1729909,-28
1643457825781,12011.1729937,-26
1643457825781,12011.1729966,-26
1643457825781,12011.1729995,-26
1643457825781,12011.1730023,-26
1643457825781,12011.1730053,-33
1643457825781,12011.1730081,-35
1643457825781,12011.173011,-26
1643457825781,12011.1730139,-14
1643457825781,12011.1730168,-11
1643457825814,12011.1730201,-7
1643457825814,12011.1730231,2
1643457825814,12011.173026,-9
1643457825814,12011.1730289,-28
1643457825814,12011.1730318,-23
1643457825814,12011.1730347,-14
1643457825814,12011.7178682,-21
1643457825814,12011.7178817,-30
1643457825814,12011.7178853,-28
1643457825814,12011.7178908,-28
1643457825847,12011.7178943,-47
1643457825847,12011.7178992,-96
1643457825847,12011.7179024,-94
1643457825847,12011.7179073,94
1643457825847,12011.7179105,394
1643457825847,12011.7179135,548
1643457825847,12011.7179166,349
1643457825847,12011.7179197,-70
1643457825847,12011.7179227,-222
1643457825847,12011.7179258,-70
1643457825879,12011.7179288,-30
1643457825879,12011.7179318,-80
1643457825879,12011.7179348,-47
1643457825879,12011.7179379,-30
1643457825879,12011.717941,-63
1643457825879,12011.7179439,-56
1643457825879,12011.7179469,-33
1643457825879,12011.7179499,-33
1643457825879,12011.7179529,-30
1643457825879,12011.717958,-18
1643457825913,12011.7179611,-28
1643457825913,12011.7179642,-54
1643457825913,12011.7179672,-54
1643457825913,12011.7179702,-28
1643457825913,12011.7179733,-18
1643457825913,12011.7179763,-16
