unixTime,lslTime,ECG
1643288403356,228100.9013697,-148
1643288403356,228100.9013724,-148
1643288403356,228100.9013749,-99
1643288403356,228100.9013779,-47
1643288403356,228100.9013805,-30
1643288403356,228100.9013831,-30
1643288403356,228100.9013856,-40
1643288403356,228100.9013882,-73
1643288403356,228100.9013907,-113
1643288403356,228100.9013933,-120
1643288403379,228100.9013959,-103
1643288403379,228100.9013984,-92
1643288403379,228100.901401,-94
1643288403379,228100.9014036,-103
1643288403379,228100.9014061,-99
1643288403379,228100.9014088,-84
1643288403379,228100.9014113,-80
1643288403379,228100.9014139,-82
1643288403379,228100.9014166,-118
1643288403379,228100.9014194,-228
1643288403407,228100.9014222,-186
1643288403407,228100.901425,476
1643288403407,228100.9014277,1588
1643288403407,228100.9014307,2034
1643288403407,228100.9014347,844
1643288403407,228100.9014374,-965
1643288403407,228100.9014421,-1264
1643288403407,228100.9014448,-488
1643288403407,228100.9014477,-323
1643288403407,228100.9014513,-344
1643288403433,228100.901454,-56
1643288403433,228100.9014568,0
1643288403433,228100.9014595,-87
1643288403433,228100.9014622,-21
1643288403433,228100.9014649,30
1643288403433,228100.9014677,16
1643288403433,228100.9014704,49
1643288403433,228100.901473,99
1643288403433,228100.9014758,110
1643288403433,228100.9014785,132
1643288403465,228100.9014812,177
1643288403465,228100.9014839,231
1643288403465,228100.9014866,297
1643288403465,228100.9014894,361
1643288403465,228100.9014922,413
1643288403465,228100.9014959,460
1643288403465,228100.9014986,486
1643288403465,228100.9015031,486
1643288403465,228100.9015056,474
1643288403465,228100.9015084,429
1643288403499,228100.9015112,339
1643288403499,228100.9015138,228
1643288403499,228100.9015165,113
1643288403499,228100.9015192,11
1643288403499,228100.901522,-68
1643288403499,228100.9015248,-134
1643288403499,228101.4510937,-179
1643288403499,228101.451106,-198
1643288403499,228101.4511107,-205
1643288403499,228101.4511152,-210
1643288403531,228101.4511181,-200
1643288403531,228101.4511209,-184
1643288403531,228101.4511246,-177
1643288403531,228101.4511274,-174
1643288403531,228101.4511301,-162
1643288403531,228101.4511328,-165
1643288403531,228101.4511366,-181
1643288403531,228101.4511394,-174
1643288403531,228101.4511439,-155
1643288403531,228101.4511465,-151
1643288403564,228101.4511493,-148
1643288403564,228101.4511522,-146
1643288403564,228101.451157,-125
1643288403564,228101.4511597,-82
1643288403922,228101.4511626,-42
1643288403922,228101.4511654,-23
1643288403922,228101.451168,-23
1643288403922,228101.4511706,-47
1643288403922,228101.4511732,-80
1643288403922,228101.4511758,-106
1643288403922,228101.4511785,-108
1643288403922,228101.4511811,-94
1643288403922,228101.4511837,-94
1643288403922,228101.4511863,-101
1643288403956,228101.4511888,-94
1643288403956,228101.4511915,-94
1643288403956,228101.4511944,-99
1643288403956,228101.4511969,-87
1643288403956,228101.4511999,-82
1643288403956,228101.4512024,-155
1643288403956,228101.4512051,-273
1643288403956,228101.4512078,-18
1643288403956,228101.4512105,927
1643288403956,228101.4512131,1949
1643288403990,228101.4512162,1814
1643288403990,228101.451219,153
1643288403990,228101.4512219,-1257
1643288403990,228101.4512246,-948
1643288403990,228101.4512273,-320
1643288403990,228101.4512301,-349
1643288403990,228101.4512328,-231
1643288403990,228101.4512369,2
1643288403990,228101.4512397,-42
1643288403990,228101.4512425,-73
1643288404024,228101.4512471,9
1643288404024,228101.4512505,23
1643288404024,228101.4512533,14
1643288404024,228101.451256,56
1643288404024,228101.4512587,92
1643288404024,228101.4512615,110
1643288404024,228101.4512643,146
1643288404024,228101.4512679,195
1643288404024,228101.4512706,247
1643288404024,228101.4512734,306
1643288404059,228101.4512771,365
1643288404059,228101.4512798,415
1643288404059,228101.4512826,448
1643288404059,228101.4512863,457
1643288404059,228101.451289,448
1643288404059,228101.4512917,424
1643288404059,228101.4512955,375
1643288404059,228101.4512993,292
1643288404059,228101.4513021,181
1643288404059,228101.4513049,73
1643288404096,228101.4513088,-16
1643288404096,228101.4513133,-89
1643288404096,228101.451316,-134
1643288404096,228101.4513189,-160
1643288404096,228101.4513234,-188
1643288404096,228102.0011352,-205
1643288404096,228102.0011469,-198
1643288404096,228102.0011505,-191
1643288404096,228102.0011557,-184
1643288404096,228102.0011586,-165
1643288404132,228102.0011614,-148
1643288404132,228102.0011641,-143
1643288404132,228102.0011669,-139
1643288404132,228102.0011696,-146
1643288404132,228102.0011724,-158
1643288404132,228102.0011751,-148
1643288404132,228102.0011788,-136
1643288404132,228102.0011817,-122
1643288404132,228102.0011861,-87
1643288404132,228102.0011892,-49
1643288404167,228102.0011921,-11
1643288404167,228102.0011958,4
1643288404167,228102.0011986,-23
1643288404167,228102.0012013,-66
1643288404468,228102.0012041,-101
1643288404468,228102.0012068,-120
1643288404468,228102.0012095,-122
1643288404468,228102.0012121,-110
1643288404468,228102.0012146,-108
1643288404468,228102.0012172,-106
1643288404468,228102.0012197,-99
1643288404468,228102.0012222,-96
1643288404468,228102.0012248,-103
1643288404468,228102.0012274,-94
1643288404510,228102.0012299,-87
1643288404510,228102.0012325,-174
1643288404510,228102.0012351,-295
1643288404510,228102.0012376,7
1643288404510,228102.0012402,998
1643288404510,228102.0012428,1994
1643288404510,228102.0012454,1744
1643288404510,228102.0012481,-23
1643288404510,228102.0012507,-1366
1643288404510,228102.0012535,-939
1643288404551,228102.0012562,-328
1643288404551,228102.0012589,-379
1643288404551,228102.0012617,-221
1643288404551,228102.0012644,7
1643288404551,228102.0012687,-59
1643288404551,228102.0012715,-70
1643288404551,228102.0012743,21
1643288404551,228102.0012779,18
1643288404551,228102.0012807,4
1643288404551,228102.0012834,49
1643288404593,228102.0012861,82
1643288404593,228102.0012889,99
1643288404593,228102.0012916,136
1643288404593,228102.0012943,179
1643288404593,228102.001297,233
1643288404593,228102.0012996,302
1643288404593,228102.0013024,368
1643288404593,228102.0013072,424
1643288404593,228102.001311,462
1643288404593,228102.0013138,472
1643288404634,228102.0013165,455
1643288404634,228102.0013193,424
1643288404634,228102.0013219,368
1643288404634,228102.0013247,276
1643288404634,228102.0013296,160
1643288404634,228102.0013323,44
1643288404634,228102.001335,-59
1643288404634,228102.0013378,-134
1643288404634,228102.0013407,-177
1643288404634,228102.001344,-202
1643288404676,228102.0013467,-219
1643288404676,228102.0013503,-224
1643288404676,228102.0013531,-214
1643288404676,228102.0013558,-200
1643288404676,228102.5510852,-191
1643288404676,228102.5510966,-184
1643288404676,228102.5511014,-167
1643288404676,228102.5511062,-153
1643288404676,228102.5511091,-141
1643288404676,228102.5511137,-134
1643288404720,228102.5511172,-151
1643288404720,228102.5511219,-169
1643288404720,228102.5511248,-160
1643288404720,228102.5511293,-132
1643288404720,228102.5511321,-99
1643288404720,228102.5511353,-63
1643288404720,228102.5511396,-28
1643288404720,228102.5511437,-9
1643288404720,228102.5511483,-23
1643288404720,228102.5511529,-66
1643288404760,228102.5511574,-108
1643288404760,228102.5511604,-127
1643288404760,228102.551165,-122
1643288404760,228102.5511677,-115
1643288405052,228102.5511706,-110
1643288405052,228102.5511733,-110
1643288405052,228102.5511759,-113
1643288405052,228102.5511785,-106
1643288405052,228102.551181,-92
1643288405052,228102.5511837,-89
1643288405052,228102.5511863,-106
1643288405052,228102.5511891,-181
1643288405052,228102.5511923,-287
1643288405052,228102.5511949,-40
1643288405094,228102.5511975,894
1643288405094,228102.5512002,1942
1643288405094,228102.5512027,1854
1643288405094,228102.5512054,174
1643288405094,228102.551208,-1319
1643288405094,228102.5512106,-1024
1643288405094,228102.5512134,-351
1643288405094,228102.5512166,-370
1643288405094,228102.5512193,-252
1643288405094,228102.5512222,0
1643288405138,228102.5512259,-49
1643288405138,228102.5512287,-94
1643288405138,228102.5512323,-4
1643288405138,228102.5512351,21
1643288405138,228102.5512396,9
1643288405138,228102.5512441,40
1643288405138,228102.5512486,66
1643288405138,228102.5512529,87
1643288405138,228102.5512573,129
1643288405138,228102.5512616,186
1643288405177,228102.551266,240
1643288405177,228102.5512702,295
1643288405177,228102.5512751,354
1643288405177,228102.551278,408
1643288405177,228102.5512817,453
1643288405177,228102.5512844,472
1643288405177,228102.5512872,462
1643288405177,228102.5512899,424
1643288405177,228102.5512928,356
1643288405177,228102.5512963,271
1643288405222,228102.5512991,165
1643288405222,228102.5513019,51
1643288405222,228102.5513056,-42
1643288405222,228102.5513083,-115
1643288405222,228102.5513129,-169
1643288405222,228102.5513157,-193
1643288405222,228102.5513183,-205
1643288405222,228102.5513208,-212
1643288405222,228102.5513235,-210
1643288405222,228102.5513261,-193
1643288405261,228102.5513288,-177
1643288405261,228102.5513314,-169
1643288405261,228102.551334,-162
1643288405261,228103.151072,-148
1643288405261,228103.1510838,-139
1643288405261,228103.1510873,-136
1643288405261,228103.151092,-132
1643288405261,228103.1510946,-136
1643288405261,228103.1510974,-153
1643288405261,228103.151101,-162
1643288405304,228103.1511038,-139
1643288405304,228103.1511074,-96
1643288405304,228103.1511101,-59
1643288405304,228103.1511137,-28
1643288405304,228103.1511165,-18
1643288405304,228103.1511193,-37
1643288405304,228103.1511237,-75
1643288405304,228103.1511265,-110
1643288405304,228103.1511292,-120
1643288405304,228103.1511336,-106
1643288405344,228103.1511362,-101
1643288405344,228103.1511389,-103
1643288405344,228103.1511416,-96
1643288405344,228103.1511442,-87
1643288405669,228103.1511486,-89
1643288405669,228103.1511517,-87
1643288405669,228103.1511543,-80
1643288405669,228103.1511568,-99
1643288405669,228103.1511594,-210
1643288405669,228103.1511619,-257
1643288405669,228103.1511645,224
1643288405669,228103.1511672,1323
1643288405669,228103.1511697,2178
1643288405669,228103.1511723,1559
1643288405713,228103.151175,-389
1643288405713,228103.1511775,-1434
1643288405713,228103.1511801,-774
1643288405713,228103.1511826,-320
1643288405713,228103.1511852,-427
1643288405713,228103.1511878,-174
1643288405713,228103.1511904,25
1643288405713,228103.1511932,-75
1643288405713,228103.1511959,-63
1643288405713,228103.1512006,30
1643288405756,228103.1512034,21
1643288405756,228103.1512073,14
1643288405756,228103.15121,63
1643288405756,228103.1512136,96
1643288405756,228103.1512165,108
1643288405756,228103.1512207,151
1643288405756,228103.1512235,219
1643288405756,228103.1512279,278
1643288405756,228103.1512306,337
1643288405756,228103.1512333,401
1643288405798,228103.151236,453
1643288405798,228103.1512387,495
1643288405798,228103.1512431,502
1643288405798,228103.1512475,476
1643288405798,228103.1512518,450
1643288405798,228103.1512558,398
1643288405798,228103.1512605,280
1643288405798,228103.1512645,151
1643288405798,228103.1512689,47
1643288405798,228103.151273,-51
1643288405840,228103.1512772,-136
1643288405840,228103.1512812,-179
1643288405840,228103.1512854,-210
1643288405840,228103.1512887,-233
1643288405840,228103.151293,-228
1643288405840,228103.1512963,-217
1643288405840,228103.151299,-207
1643288405840,228103.1513027,-191
1643288405840,228103.1513055,-181
1643288405840,228103.1513091,-174
1643288405882,228103.1513119,-162
1643288405882,228103.1513161,-146
1643288405882,228103.7549665,-132
1643288405882,228103.7549791,-129
1643288405882,228103.7549834,-125
1643288405882,228103.754988,-122
1643288405882,228103.7549908,-125
1643288405882,228103.7549953,-103
1643288405882,228103.754998,-49
1643288405882,228103.7550008,-2
1643288405925,228103.7550044,9
1643288405925,228103.7550073,-14
1643288405925,228103.7550116,-70
1643288405925,228103.755016,-127
1643288405925,228103.7550203,-141
1643288405925,228103.7550244,-127
1643288405925,228103.7550286,-113
1643288405925,228103.7550327,-110
1643288405925,228103.755037,-113
1643288405925,228103.755041,-110
1643288405968,228103.7550454,-96
1643288405968,228103.7550481,-96
1643288405968,228103.7550509,-99
1643288405968,228103.7550546,-94
1643288406192,228103.7550575,-162
1643288406192,228103.7550602,-278
1643288406192,228103.7550628,-14
1643288406192,228103.7550654,915
1643288406192,228103.7550679,1916
1643288406192,228103.7550705,1836
1643288406192,228103.7550731,195
1643288406192,228103.7550758,-1321
1643288406192,228103.7550784,-1028
1643288406192,228103.7550809,-335
1643288406239,228103.7550835,-391
1643288406239,228103.7550861,-276
1643288406239,228103.7550887,16
1643288406239,228103.7550913,-33
1643288406239,228103.7550939,-87
1643288406239,228103.7550965,11
1643288406239,228103.7550996,35
1643288406239,228103.7551024,16
1643288406239,228103.7551051,56
1643288406239,228103.7551078,92
1643288406283,228103.7551115,103
1643288406283,228103.7551143,134
1643288406283,228103.7551187,184
1643288406283,228103.7551214,236
1643288406283,228103.7551241,302
1643288406283,228103.7551278,375
1643288406283,228103.7551305,436
1643288406283,228103.7551349,469
1643288406283,228103.7551375,476
1643288406283,228103.755141,467
1643288406325,228103.7551453,434
1643288406325,228103.7551481,365
1643288406325,228103.7551524,264
1643288406325,228103.755155,139
1643288406325,228103.7551578,23
1643288406325,228103.7551615,-68
1643288406325,228103.7551643,-143
1643288406325,228103.7551685,-188
1643288406325,228103.7551711,-207
1643288406325,228103.7551739,-226
1643288406371,228103.7551786,-243
1643288406371,228103.7551813,-236
1643288406371,228103.7551851,-217
1643288406371,228103.7551878,-205
1643288406371,228103.7551913,-191
1643288406371,228103.7551941,-179
1643288406371,228103.7551984,-172
1643288406371,228103.7552023,-162
1643288406371,228103.7552064,-148
1643288406371,228103.7552105,-143
1643288406413,228103.7552147,-153
1643288406413,228104.2998702,-143
1643288406413,228104.2998811,-103
1643288406413,228104.2999101,-54
1643288406413,228104.299913,-21
1643288406413,228104.2999157,0
1643288406413,228104.2999184,-2
1643288406413,228104.299921,-35
1643288406413,228104.2999236,-77
1643288406413,228104.2999262,-113
1643288406464,228104.2999288,-120
1643288406464,228104.2999314,-106
1643288406464,228104.2999339,-99
1643288406464,228104.2999563,-108
1643288406464,228104.3000609,-110
1643288406464,228104.3000726,-113
1643288406464,228104.3000767,-120
1643288406464,228104.3000793,-122
1643288406464,228104.3000819,-118
1643288406464,228104.3000906,-195
1643288406495,228104.3000938,-306
1643288406495,228104.3000965,11
1643288406495,228104.3003516,988
1643288406495,228104.3003733,1918
1643288406711,228104.300381,1706
1643288406711,228104.3003843,63
1643288406711,228104.3003872,-1307
1643288406711,228104.3003899,-958
1643288406711,228104.3003925,-325
1643288406711,228104.3003951,-365
1643288406711,228104.3003978,-240
1643288406711,228104.3004004,-11
1643288406711,228104.300403,-63
1643288406711,228104.3004056,-87
1643288406750,228104.3004083,0
1643288406750,228104.3004109,16
1643288406750,228104.3004136,0
1643288406750,228104.3004163,21
1643288406750,228104.3004189,51
1643288406750,228104.3004215,80
1643288406750,228104.3004241,122
1643288406750,228104.300438,174
1643288406750,228104.3004425,226
1643288406750,228104.3004455,280
1643288406793,228104.3004482,354
1643288406793,228104.3004508,417
1643288406793,228104.3004534,446
1643288406793,228104.3004561,453
1643288406793,228104.3004586,438
1643288406793,228104.3004613,391
1643288406793,228104.3004638,325
1643288406793,228104.3004664,238
1643288406793,228104.300469,120
1643288406793,228104.3004716,2
1643288406837,228104.3004743,-84
1643288406837,228104.300477,-151
1643288406837,228104.3004796,-195
1643288406837,228104.3004822,-217
1643288406837,228104.3004848,-224
1643288406837,228104.3004874,-221
1643288406837,228104.3004901,-214
1643288406837,228104.3004938,-207
1643288406837,228104.3004965,-198
1643288406837,228104.3004992,-181
1643288406880,228104.3005018,-165
1643288406880,228104.3005045,-153
1643288406880,228104.3005071,-146
1643288406880,228104.3005098,-141
1643288406880,228104.3005124,-139
1643288406880,228104.300515,-127
1643288406880,228104.3005176,-101
1643288406880,228104.3005202,-70
1643288406880,228104.3005229,-37
1643288406880,228104.3005256,7
1643288406922,228104.8010382,21
1643288406922,228104.8010495,-11
1643288406922,228104.8010526,-59
1643288406922,228104.8010552,-92
1643288406922,228104.8010576,-108
1643288406922,228104.8010602,-110
1643288406922,228104.8010626,-108
1643288406922,228104.8010651,-110
1643288406922,228104.8010676,-113
1643288406922,228104.8010702,-103
1643288406966,228104.8010726,-99
1643288406966,228104.8010752,-96
1643288406966,228104.8010777,-96
1643288406966,228104.8010802,-134
1643288406966,228104.8010827,-264
1643288406966,228104.8010852,-273
1643288406966,228104.8010878,316
1643288406966,228104.8010918,1392
1643288406966,228104.8010965,1977
1643288406966,228104.8010991,1073
1643288407013,228104.8011016,-764
1643288407013,228104.8011041,-1387
1643288407013,228104.8011066,-630
1643288407013,228104.801109,-316
1643288407262,228104.8011116,-387
1643288407262,228104.8011141,-120
1643288407262,228104.8011165,7
1643288407262,228104.801119,-87
1643288407262,228104.8011215,-59
1643288407262,228104.801124,16
1643288407262,228104.8011265,11
1643288407262,228104.8011303,11
1643288407262,228104.8011329,49
1643288407262,228104.801138,80
1643288407282,228104.8011409,94
1643288407282,228104.8011434,134
1643288407282,228104.8011459,191
1643288407282,228104.8011493,240
1643288407282,228104.8011518,304
1643288407282,228104.8011543,379
1643288407282,228104.8011568,436
1643288407282,228104.8011593,460
1643288407282,228104.8011619,460
1643288407282,228104.8011644,443
1643288407305,228104.8011668,403
1643288407305,228104.8011693,311
1643288407305,228104.8011717,193
1643288407305,228104.8011742,84
1643288407305,228104.8011767,-14
1643288407305,228104.8011792,-106
1643288407305,228104.8011818,-162
1643288407305,228104.8011842,-193
1643288407305,228104.8011867,-221
1643288407305,228104.8011891,-243
1643288407328,228104.8011917,-243
1643288407328,228104.8011941,-224
1643288407328,228104.8011966,-195
1643288407328,228104.8011991,-188
1643288407328,228104.8012016,-191
1643288407328,228104.8012041,-174
1643288407328,228104.8012065,-148
1643288407328,228104.8012091,-139
1643288407328,228104.8012117,-141
1643288407328,228104.8012142,-132
1643288407351,228104.8012167,-108
1643288407351,228104.8012192,-77
1643288407351,228104.8012217,-49
1643288407351,228104.8012243,-9
1643288407351,228104.8012271,18
1643288407351,228104.8012296,0
1643288407351,228104.8012322,-37
1643288407351,228104.8012346,-63
1643288407351,228104.8012371,-96
1643288407351,228105.3510938,-110
1643288407376,228105.3511055,-99
1643288407376,228105.3511092,-96
1643288407376,228105.3511142,-96
1643288407376,228105.3511173,-84
1643288407376,228105.3511218,-99
1643288407376,228105.3511246,-125
1643288407376,228105.3511274,-120
1643288407376,228105.3511321,-103
1643288407376,228105.3511349,-141
1643288407376,228105.3511378,-247
1643288407400,228105.3511417,-148
1643288407400,228105.3511447,566
1643288407400,228105.3511495,1656
1643288407400,228105.3511526,2022
1643288407400,228105.3511572,684
1643288407400,228105.3511611,-1184
1643288407400,228105.3511657,-1321
1643288407400,228105.3511694,-464
1643288407400,228105.3511741,-398
1643288407400,228105.3511768,-431
1643288407429,228105.3511797,-61
1643288407429,228105.3511837,14
1643288407429,228105.3511866,-94
1643288407429,228105.3511913,-14
1643288407922,228105.3511951,51
1643288407922,228105.351198,35
1643288407922,228105.3512006,70
1643288407922,228105.3512032,127
1643288407922,228105.3512059,136
1643288407922,228105.3512086,139
1643288407922,228105.3512113,188
1643288407922,228105.351214,261
1643288407922,228105.3512166,313
1643288407922,228105.3512193,372
1643288407946,228105.3512219,455
1643288407946,228105.3512245,505
1643288407946,228105.3512272,509
1643288407946,228105.3512299,519
1643288407946,228105.3512325,521
1643288407946,228105.3512352,467
1643288407946,228105.3512379,368
1643288407946,228105.3512408,243
1643288407946,228105.3512436,113
1643288407946,228105.3512465,-2
1643288407970,228105.3512496,-87
1643288407970,228105.3512524,-148
1643288407970,228105.3512552,-191
1643288407970,228105.3512593,-214
1643288407970,228105.3512621,-224
1643288407970,228105.3512897,-236
1643288407970,228105.3512994,-228
1643288407970,228105.3513029,-214
1643288407970,228105.3513077,-212
1643288407970,228105.3513108,-198
1643288407997,228105.3513154,-172
1643288407997,228105.3513184,-160
1643288407997,228105.3513222,-151
1643288407997,228105.3513251,-129
1643288407997,228105.351329,-115
1643288407997,228105.3513319,-120
1643288407997,228105.3513366,-115
1643288407997,228105.3513394,-70
1643288407997,228105.3513423,-16
1643288407997,228105.3513461,0
1643288408024,228105.351349,-7
1643288408024,228105.3513539,-25
1643288408024,228105.3513568,-56
1643288408024,228105.3513604,-84
1643288408024,228105.3513633,-96
1643288408024,228105.351367,-96
1643288408024,228105.3513699,-94
1643288408024,228105.3513728,-92
1643288408024,228106.0076762,-77
1643288408024,228106.0076876,-56
1643288408047,228106.0076912,-51
1643288408047,228106.0076961,-77
1643288408047,228106.0076996,-103
1643288408047,228106.007704,-108
1643288408047,228106.0077068,-158
1643288408047,228106.0077096,-186
1643288408047,228106.0077125,184
1643288408047,228106.0077171,1113
1643288408047,228106.00772,1904
1643288408047,228106.0077237,1404
1643288408071,228106.0077267,-377
1643288408071,228106.0077306,-1439
1643288408071,228106.0077335,-861
1643288408071,228106.0077363,-379
1643288408071,228106.0077402,-516
1643288408071,228106.007743,-287
1643288408071,228106.0077656,14
1643288408071,228106.0077716,-35
1643288408071,228106.0077748,-51
1643288408071,228106.0077781,40
1643288408096,228106.0077819,49
1643288408096,228106.0077852,47
1643288408096,228106.0077881,94
1643288408096,228106.0077907,125
1643288408447,228106.0077933,151
1643288408447,228106.0077961,202
1643288408447,228106.0077987,250
1643288408447,228106.0078014,304
1643288408447,228106.0078039,377
1643288408447,228106.0078066,448
1643288408447,228106.0078092,505
1643288408447,228106.0078118,542
1643288408447,228106.0078144,545
1643288408447,228106.0078171,521
1643288408477,228106.0078196,476
1643288408477,228106.0078222,394
1643288408477,228106.0078248,278
1643288408477,228106.0078274,160
1643288408477,228106.0078301,56
1643288408477,228106.0078327,-37
1643288408477,228106.0078354,-110
1643288408477,228106.0078381,-165
1643288408477,228106.0078407,-198
1643288408477,228106.0078448,-217
1643288408505,228106.0078476,-221
1643288408505,228106.0078504,-212
1643288408505,228106.0078533,-210
1643288408505,228106.0078561,-212
1643288408505,228106.0078589,-198
1643288408505,228106.0078617,-181
1643288408505,228106.0078645,-169
1643288408505,228106.0078698,-151
1643288408505,228106.0078739,-134
1643288408505,228106.0078767,-125
1643288408539,228106.0078793,-106
1643288408539,228106.0078823,-68
1643288408539,228106.0078852,-30
1643288408539,228106.007888,-4
1643288408539,228106.0078909,2
1643288408539,228106.0078953,-11
1643288408539,228106.0078981,-42
1643288408539,228106.0079019,-80
1643288408539,228106.0079047,-101
1643288408539,228106.0079073,-96
1643288408570,228106.00791,-87
1643288408570,228106.0079127,-84
1643288408570,228106.0079154,-84
1643288408570,228106.0079181,-84
1643288408570,228106.0080288,-82
1643288408570,228106.0080395,-80
1643288408570,228106.0080428,-70
1643288408570,228106.5512895,-70
1643288408570,228106.5513013,-127
1643288408570,228106.5513059,-219
1643288408599,228106.5513108,-18
1643288408599,228106.5513138,757
1643288408599,228106.5513183,1687
1643288408599,228106.5513219,1727
1643288408599,228106.5513248,328
1643288408599,228106.5513276,-1151
1643288408599,228106.5513332,-1076
1643288408599,228106.5513361,-427
1643288408599,228106.5513409,-424
1643288408599,228106.5513438,-363
1643288408631,228106.5513484,-44
1643288408631,228106.5513525,-9
1643288408631,228106.5513569,-84
1643288408631,228106.5513599,-37
1643288408631,228106.5513643,-9
1643288408631,228106.551367,-9
1643288408631,228106.5513697,28
1643288408631,228106.5513735,66
1643288408631,228106.5513763,92
1643288408631,228106.5513799,127
1643288408661,228106.5513826,174
1643288408661,228106.5513853,233
1643288408661,228106.5513881,299
1643288408661,228106.5513908,370
1643288409061,228106.5513947,431
1643288409061,228106.5513974,481
1643288409061,228106.5513999,505
1643288409061,228106.5514025,502
1643288409061,228106.551405,472
1643288409061,228106.5514076,405
1643288409061,228106.5514102,302
1643288409061,228106.5514127,172
1643288409061,228106.5514153,61
1643288409061,228106.5514179,-21
1643288409089,228106.5514204,-96
1643288409089,228106.5514233,-158
1643288409089,228106.5514259,-191
1643288409089,228106.5514285,-207
1643288409089,228106.5514311,-217
1643288409089,228106.5514336,-219
1643288409089,228106.5514361,-210
1643288409089,228106.5514387,-198
1643288409089,228106.5514415,-191
1643288409089,228106.5514442,-179
1643288409121,228106.5514468,-160
1643288409121,228106.5514495,-153
1643288409121,228106.5514533,-146
1643288409121,228106.5514562,-122
1643288409121,228106.5514589,-96
1643288409121,228106.5514616,-61
1643288409121,228106.5514644,-16
1643288409121,228106.5514671,2
1643288409121,228106.5514699,-14
1643288409121,228106.5514726,-40
1643288409155,228106.5514755,-73
1643288409155,228106.5514795,-101
1643288409155,228106.5514828,-108
1643288409155,228106.5514872,-103
1643288409155,228106.5514899,-108
1643288409155,228106.5514927,-106
1643288409155,228106.5514954,-94
1643288409155,228106.551498,-92
1643288409155,228106.5515006,-96
1643288409155,228106.5515032,-94
1643288409185,228106.5515059,-89
1643288409185,228106.5515086,-110
1643288409185,228106.5515113,-188
1643288409185,228106.551514,-162
1643288409185,228106.5515167,351
1643288409185,228106.5515195,1302
1643288409185,228107.1484487,1833
1643288409185,228107.1484605,1038
1643288409185,228107.1484654,-594
1643288409185,228107.1484703,-1222
1643288409220,228107.1484733,-611
1643288409220,228107.1484778,-316
1643288409220,228107.1484806,-387
1643288409220,228107.1484834,-146
1643288409220,228107.1484871,9
1643288409220,228107.1484899,-59
1643288409220,228107.1484935,-33
1643288409220,228107.1484963,30
1643288409220,228107.1485008,18
1643288409220,228107.1485035,25
1643288409256,228107.1485063,51
1643288409256,228107.1485091,51
1643288409256,228107.1485119,82
1643288409256,228107.1485148,139
1643288409256,228107.1485185,186
1643288409256,228107.1485213,245
1643288409256,228107.148524,316
1643288409256,228107.1485268,379
1643288409256,228107.1485295,438
1643288409256,228107.1485323,479
1643288409290,228107.148535,488
1643288409290,228107.1485378,474
1643288409290,228107.1485405,424
1643288409290,228107.1485432,318
1643288409579,228107.1485478,198
1643288409579,228107.1485513,99
1643288409579,228107.1485539,4
1643288409579,228107.1485565,-89
1643288409579,228107.148559,-162
1643288409579,228107.1485616,-198
1643288409579,228107.1485642,-210
1643288409579,228107.1485668,-217
1643288409579,228107.1485693,-224
1643288409579,228107.1485719,-219
1643288409614,228107.1485745,-200
1643288409614,228107.1485772,-191
1643288409614,228107.1485797,-186
1643288409614,228107.1485823,-177
1643288409614,228107.1485849,-155
1643288409614,228107.1485875,-141
1643288409614,228107.14859,-139
1643288409614,228107.1485933,-122
1643288409614,228107.1485961,-89
1643288409614,228107.1485989,-73
1643288409650,228107.1486016,-33
1643288409650,228107.1486045,33
1643288409650,228107.1486072,35
1643288409650,228107.14861,-28
1643288409650,228107.1486127,-75
1643288409650,228107.1486154,-89
1643288409650,228107.1486182,-96
1643288409650,228107.1486219,-99
1643288409650,228107.1486247,-87
1643288409650,228107.1486274,-82
1643288409687,228107.1486301,-92
1643288409687,228107.1486329,-92
1643288409687,228107.1486357,-87
1643288409687,228107.1486384,-89
1643288409687,228107.1486411,-87
1643288409687,228107.1486439,-103
1643288409687,228107.1486466,-188
1643288409687,228107.1486494,-181
1643288409687,228107.1486541,328
1643288409687,228107.1486569,1319
1643288409724,228107.1486597,1944
1643288409724,228107.1486625,1217
1643288409724,228107.1486653,-476
1643288409724,228107.1486698,-1210
1643288409724,228107.1487148,-637
1643288409724,228107.6511678,-337
1643288409724,228107.6511789,-401
1643288409724,228107.6511832,-162
1643288409724,228107.6511887,-18
1643288409724,228107.6511916,-92
1643288409760,228107.6511945,-66
1643288409760,228107.6511992,-2
1643288409760,228107.6512038,-9
1643288409760,228107.6512085,9
1643288409760,228107.6512129,56
1643288409760,228107.6512167,77
1643288409760,228107.6512197,94
1643288409760,228107.6512243,125
1643288409760,228107.6512273,162
1643288409760,228107.6512303,224
1643288409798,228107.6512353,297
1643288409798,228107.6512382,361
1643288409798,228107.6512428,417
1643288409798,228107.6512471,448
1643288409798,228107.6512516,455
1643288409798,228107.651256,438
1643288409798,228107.6512607,396
1643288409798,228107.6512652,309
1643288409798,228107.6512701,186
1643288409798,228107.6512734,63
1643288409834,228107.6512781,-35
1643288409834,228107.6512812,-125
1643288409834,228107.6512842,-205
1643288409834,228107.6512888,-243
1643288410166,228107.6512924,-254
1643288410166,228107.6512955,-266
1643288410166,228107.6512984,-261
1643288410166,228107.6513011,-243
1643288410166,228107.6513039,-238
1643288410166,228107.6513066,-231
1643288410166,228107.6513094,-212
1643288410166,228107.6513121,-195
1643288410166,228107.6513148,-184
1643288410166,228107.6513176,-174
1643288410206,228107.6513203,-172
1643288410206,228107.6513231,-158
1643288410206,228107.6513258,-141
1643288410206,228107.6513285,-136
1643288410206,228107.6513313,-122
1643288410206,228107.6513341,-84
1643288410206,228107.6513369,-54
1643288410206,228107.6513399,-23
1643288410206,228107.6513447,-7
1643288410206,228107.6513476,-23
1643288410249,228107.6513506,-61
1643288410249,228107.6513555,-89
1643288410249,228107.6513584,-101
1643288410249,228107.6513614,-101
1643288410249,228107.6513652,-101
1643288410249,228107.6513683,-94
1643288410249,228107.6513728,-84
1643288410249,228107.6513774,-82
1643288410249,228107.6513819,-75
1643288410249,228107.6513849,-70
1643288410290,228107.651388,-77
1643288410290,228107.6513925,-80
1643288410290,228107.6513956,-113
1643288410290,228107.6514002,-169
1643288410290,228107.6514032,66
1643288410290,228107.6514079,866
1643288410290,228107.651411,1791
1643288410290,228107.6514147,1807
1643288410290,228107.6514177,384
1643288410290,228107.6514223,-1085
1643288410332,228107.6514269,-1014
1643288410332,228107.6514314,-405
1643288410332,228107.6514344,-410
1643288410332,228107.6514389,-337
1643288410332,228108.2505449,-47
1643288410332,228108.250558,-37
1643288410332,228108.2505628,-96
1643288410332,228108.2505677,-11
1643288410332,228108.2505707,35
1643288410332,228108.2505751,21
1643288410377,228108.2505793,35
1643288410377,228108.2505837,75
1643288410377,228108.2505865,113
1643288410377,228108.2505893,155
1643288410377,228108.2505939,188
1643288410377,228108.2505968,207
1643288410377,228108.2506012,257
1643288410377,228108.2506053,344
1643288410377,228108.2506103,415
1643288410377,228108.2506132,460
1643288410421,228108.250616,493
1643288410421,228108.2506186,493
1643288410421,228108.2506222,453
1643288410421,228108.2506259,389
1643288410421,228108.2506288,295
1643288410421,228108.2506334,174
1643288410421,228108.2506361,61
1643288410421,228108.250639,-37
1643288410421,228108.2506438,-115
1643288410421,228108.2506465,-174
1643288410463,228108.2506494,-214
1643288410463,228108.2506522,-238
1643288410463,228108.2506558,-245
1643288410463,228108.2506594,-245
1643288410680,228108.2506623,-243
1643288410680,228108.250665,-226
1643288410680,228108.2506676,-202
1643288410680,228108.2506703,-179
1643288410680,228108.2506729,-167
1643288410680,228108.2506756,-169
1643288410680,228108.2506789,-162
1643288410680,228108.2506819,-141
1643288410680,228108.2506846,-134
1643288410680,228108.2506872,-132
1643288410725,228108.2506899,-118
1643288410725,228108.2506926,-113
1643288410725,228108.2506952,-106
1643288410725,228108.250698,-80
1643288410725,228108.2507007,-47
1643288410725,228108.2507035,-16
1643288410725,228108.2507063,-14
1643288410725,228108.25071,-42
1643288410725,228108.250713,-63
1643288410725,228108.2507177,-84
1643288410769,228108.2507204,-103
1643288410769,228108.2507233,-110
1643288410769,228108.2507279,-106
1643288410769,228108.2507328,-101
1643288410769,228108.2507372,-99
1643288410769,228108.25074,-94
1643288410769,228108.2507437,-94
1643288410769,228108.2507466,-89
1643288410769,228108.250751,-80
1643288410769,228108.2507844,-80
1643288410812,228108.2507907,-118
1643288410812,228108.2507937,-155
1643288410812,228108.2507982,84
1643288410812,228108.2508023,851
1643288410812,228108.2508067,1746
1643288410812,228108.2508096,1777
1643288410812,228108.2508141,431
1643288410812,228108.2508169,-1010
1643288410812,228108.2508207,-1012
1643288410812,228108.2508235,-420
1643288410856,228108.250828,-384
1643288410856,228108.2508322,-328
1643288410856,228108.2508367,-56
1643288410856,228108.7511386,-30
1643288410856,228108.7511497,-84
1643288410856,228108.7511531,-7
1643288410856,228108.7511559,33
1643288410856,228108.7511586,14
1643288410856,228108.7511613,37
1643288410856,228108.751164,68
1643288410904,228108.7511666,80
1643288410904,228108.7511696,113
1643288410904,228108.7511722,160
1643288410904,228108.7511748,202
1643288410904,228108.7511774,254
1643288410904,228108.75118,323
1643288410904,228108.7511826,389
1643288410904,228108.7511852,441
1643288410904,228108.7511877,472
1643288410904,228108.7511903,455
1643288410949,228108.7511929,401
1643288410949,228108.7511955,339
1643288410949,228108.7511981,259
1643288410949,228108.7512007,155
1643288410949,228108.7512033,51
1643288410949,228108.7512061,-51
1643288410949,228108.7512086,-141
1643288410949,228108.7512113,-191
1643288410949,228108.7512139,-214
1643288410949,228108.7512165,-231
1643288410994,228108.7512191,-233
1643288410994,228108.7512217,-221
1643288410994,228108.7512243,-217
1643288410994,228108.7512272,-219
1643288411225,228108.7512299,-221
1643288411225,228108.7512335,-205
1643288411225,228108.7512375,-169
1643288411225,228108.7512403,-151
1643288411225,228108.7512429,-155
1643288411225,228108.7512456,-143
1643288411225,228108.7512483,-122
1643288411225,228108.7512509,-127
1643288411225,228108.7512535,-146
1643288411225,228108.7512561,-155
1643288411269,228108.7512588,-143
1643288411269,228108.7512614,-92
1643288411269,228108.751264,-47
1643288411269,228108.7512666,-42
1643288411269,228108.7512692,-51
1643288411269,228108.7512718,-51
1643288411269,228108.751275,-66
1643288411269,228108.7512776,-99
1643288411269,228108.7512802,-120
1643288411269,228108.7512828,-113
1643288411310,228108.7512854,-94
1643288411310,228108.751288,-89
1643288411310,228108.7512907,-89
1643288411310,228108.7512933,-87
1643288411310,228108.7512959,-75
1643288411310,228108.7512985,-63
1643288411310,228108.7513011,-66
1643288411310,228108.7513037,-82
1643288411310,228108.7513065,-122
1643288411310,228108.7513092,-169
1643288411352,228108.7513121,77
1643288411352,228108.7513151,901
1643288411352,228108.7513179,1829
1643288411352,228108.7513206,1821
1643288411352,228108.7513235,472
1643288411352,228108.7513276,-906
1643288411352,228108.7513313,-927
1643288411352,228108.751334,-422
1643288411352,228108.7513369,-375
1643288411352,228108.7513405,-299
1643288411398,228108.7513431,-77
1643288411398,228108.7513457,-61
1643288411398,228109.3011331,-89
1643288411398,228109.3011437,-30
1643288411398,228109.301147,-16
1643288411398,228109.3011505,-25
1643288411398,228109.3011532,25
1643288411398,228109.301156,73
1643288411398,228109.3011587,68
1643288411398,228109.3011614,73
1643288411439,228109.3011641,108
1643288411439,228109.3011669,148
1643288411439,228109.3011696,205
1643288411439,228109.3011724,280
1643288411439,228109.3011751,337
1643288411439,228109.3011779,372
1643288411439,228109.3011806,405
1643288411439,228109.3011833,422
1643288411439,228109.3011861,398
1643288411439,228109.3011888,342
1643288411484,228109.3011915,259
1643288411484,228109.3011942,162
1643288411484,228109.3011969,59
1643288411484,228109.3011996,-35
1643288411484,228109.3012023,-103
1643288411484,228109.301205,-153
1643288411484,228109.3012077,-191
1643288411484,228109.3012104,-210
1643288411484,228109.301213,-212
1643288411484,228109.3012157,-207
1643288411526,228109.3012184,-200
1643288411526,228109.3012211,-181
1643288411526,228109.3012238,-162
1643288411526,228109.3012264,-165
1643288411842,228109.3012292,-160
1643288411842,228109.3012318,-132
1643288411842,228109.3012345,-118
1643288411842,228109.3012371,-132
1643288411842,228109.3012398,-136
1643288411842,228109.3012426,-120
1643288411842,228109.3012452,-113
1643288411842,228109.3012479,-129
1643288411842,228109.3012506,-136
1643288411842,228109.3012533,-115
1643288411887,228109.3012559,-80
1643288411887,228109.3012586,-49
1643288411887,228109.3012613,-4
1643288411887,228109.301264,28
1643288411887,228109.3012667,-4
1643288411887,228109.3012694,-82
1643288411887,228109.3012721,-108
1643288411887,228109.3012748,-75
1643288411887,228109.3012775,-63
1643288411887,228109.3012802,-77
1643288411932,228109.3012829,-75
1643288411932,228109.3012857,-68
1643288411932,228109.3012883,-61
1643288411932,228109.301291,-47
1643288411932,228109.3012938,-30
1643288411932,228109.301297,-40
1643288411932,228109.3012996,-73
1643288411932,228109.3013024,-141
1643288411932,228109.3013052,-84
1643288411932,228109.3013079,469
1643288411978,228109.3013109,1451
1643288411978,228109.3013137,2027
1643288411978,228109.3013165,1319
1643288411978,228109.3013193,-306
1643288411978,228109.301322,-1102
1643288411978,228109.3013247,-641
1643288411978,228109.3013275,-316
1643288411978,228109.3013303,-332
1643288411978,228109.301333,-141
1643288411978,228109.3013357,-23
1643288412022,228109.3013385,-80
1643288412022,228109.9511677,-54
1643288412022,228109.951178,2
1643288412022,228109.9511813,-9
1643288412022,228109.951184,-2
1643288412022,228109.9511868,51
1643288412022,228109.9511893,77
1643288412022,228109.951192,70
1643288412022,228109.9511945,77
1643288412022,228109.9511971,110
1643288412068,228109.9511997,155
1643288412068,228109.9512023,217
1643288412068,228109.9512049,285
1643288412068,228109.9512075,339
1643288412068,228109.95121,375
1643288412068,228109.9512127,389
1643288412068,228109.9512168,384
1643288412068,228109.9512209,368
1643288412068,228109.9512237,320
1643288412068,228109.9512295,226
1643288412112,228109.9512334,101
1643288412112,228109.9512363,-4
1643288412112,228109.9512404,-75
1643288412112,228109.9512431,-129
1643288412112,228109.9512467,-172
1643288412112,228109.9512495,-193
1643288412112,228109.9512534,-195
1643288412112,228109.9512562,-198
1643288412112,228109.9512589,-198
1643288412112,228109.9512617,-181
1643288412160,228109.9512645,-165
1643288412160,228109.9512672,-155
1643288412160,228109.9512699,-136
1643288412160,228109.9512727,-139
1643288412372,228109.9512766,-155
1643288412372,228109.95128,-139
1643288412372,228109.9512826,-110
1643288412372,228109.9512852,-106
1643288412372,228109.9512878,-103
1643288412372,228109.9512905,-89
1643288412372,228109.9512935,-82
1643288412372,228109.9512962,-89
1643288412372,228109.9512988,-103
1643288412372,228109.9513014,-94
1643288412418,228109.9513039,-66
1643288412418,228109.9513065,-40
1643288412418,228109.9513091,-28
1643288412418,228109.9513117,-16
1643288412418,228109.9513145,7
1643288412418,228109.9513174,0
1643288412418,228109.9513202,-56
1643288412418,228109.9513228,-89
1643288412418,228109.9513255,-49
1643288412418,228109.9513281,-14
1643288412463,228109.9513307,-56
1643288412463,228109.9513332,-115
1643288412463,228109.9513357,-118
1643288412463,228109.9513384,-75
1643288412463,228109.9513409,-40
1643288412463,228109.9513436,-28
1643288412463,228109.9513461,-33
1643288412463,228109.9513487,-61
1643288412463,228109.9513514,-115
1643288412463,228109.9513541,18
1643288412508,228109.951357,653
1643288412508,228109.9513598,1571
1643288412508,228109.9513637,1899
1643288412508,228109.9513665,880
1643288412508,228109.9513701,-745
1643288412508,228109.951373,-1172
1643288412508,228109.9513779,-533
1643288412508,228109.9513806,-356
1643288412508,228109.9513835,-415
1643288412508,228109.951388,-110
1643288412551,228110.4511688,30
1643288412551,228110.451181,-51
1643288412551,228110.4511848,4
1643288412551,228110.4511897,82
1643288412551,228110.4511934,56
1643288412551,228110.451198,61
1643288412551,228110.4512011,108
1643288412551,228110.4512056,120
1643288412551,228110.4512103,136
1643288412551,228110.4512149,179
1643288412594,228110.4512178,219
1643288412594,228110.4512208,266
1643288412594,228110.4512254,323
1643288412594,228110.4512298,389
1643288412594,228110.4512344,448
1643288412594,228110.4512372,497
1643288412594,228110.4512419,535
1643288412594,228110.4512464,533
1643288412594,228110.4512509,457
1643288412594,228110.451254,335
1643288412639,228110.4512585,217
1643288412639,228110.4512631,101
1643288412639,228110.4512677,-21
1643288412639,228110.4512706,-118
1643288412639,228110.4512752,-179
1643288412639,228110.4512797,-228
1643288412639,228110.4512846,-264
1643288412639,228110.4512876,-261
1643288412639,228110.4512923,-250
1643288412639,228110.4512952,-257
1643288412680,228110.4512998,-254
1643288412680,228110.4513042,-247
1643288412680,228110.451309,-236
1643288412680,228110.4513121,-219
1643288412938,228110.4513166,-212
1643288412938,228110.4513198,-195
1643288412938,228110.4513226,-155
1643288412938,228110.4513256,-132
1643288412938,228110.4513283,-139
1643288412938,228110.4513314,-139
1643288412938,228110.4513342,-125
1643288412938,228110.4513369,-106
1643288412938,228110.4513397,-94
1643288412938,228110.4513424,-99
1643288412982,228110.4513452,-118
1643288412982,228110.451348,-125
1643288412982,228110.4513508,-118
1643288412982,228110.4513543,-94
1643288412982,228110.4513572,-54
1643288412982,228110.451362,-21
1643288412982,228110.451365,-23
1643288412982,228110.4513697,-33
1643288412982,228110.4513741,-35
1643288412982,228110.4513785,-61
1643288413026,228110.4513813,-89
1643288413026,228110.4513843,-82
1643288413026,228110.4513889,-68
1643288413026,228110.4513934,-75
1643288413026,228110.4513981,-87
1643288413026,228110.4514011,-87
1643288413026,228110.4514057,-70
1643288413026,228110.4514087,-49
1643288413026,228110.4514135,-54
1643288413026,228110.4514165,-63
1643288413071,228110.4514211,-80
1643288413071,228110.4514241,-115
1643288413071,228110.4514286,84
1643288413071,228110.4514322,811
1643288413071,228110.451437,1699
1643288413071,228110.4514399,1779
1643288413071,228110.4514436,507
1643288413071,228110.4514643,-960
1643288413071,228110.4514688,-1054
1643288413071,228111.046953,-462
1643288413114,228111.0469678,-394
1643288413114,228111.0469714,-337
1643288413114,228111.0469762,-54
1643288413114,228111.0469789,-25
1643288413114,228111.0469815,-82
1643288413114,228111.0469842,7
1643288413114,228111.046987,47
1643288413114,228111.0469903,21
1643288413114,228111.0469929,49
1643288413114,228111.0469955,70
1643288413158,228111.0469984,54
1643288413158,228111.0470022,70
1643288413158,228111.0470048,113
1643288413158,228111.0470074,165
1643288413158,228111.0470099,221
1643288413158,228111.0470125,290
1643288413158,228111.0470153,375
1643288413158,228111.047018,434
1643288413158,228111.0470207,450
1643288413158,228111.0470234,460
1643288413194,228111.0470261,450
1643288413194,228111.0470287,398
1643288413194,228111.0470314,325
1643288413194,228111.0470359,245
1643288413194,228111.0470384,151
1643288413194,228111.047041,42
1643288413194,228111.0470436,-54
1643288413194,228111.0470461,-118
1643288413194,228111.0470488,-151
1643288413194,228111.0470513,-177
1643288413234,228111.0470538,-195
1643288413234,228111.0470564,-198
1643288413234,228111.0470599,-193
1643288413234,228111.0470626,-181
1643288413505,228111.0470654,-162
1643288413505,228111.047068,-155
1643288413505,228111.0470705,-153
1643288413505,228111.0470731,-139
1643288413505,228111.0470756,-120
1643288413505,228111.0470781,-120
1643288413505,228111.0470806,-115
1643288413505,228111.0470832,-87
1643288413505,228111.0470857,-73
1643288413505,228111.0470882,-87
1643288413542,228111.0470908,-89
1643288413542,228111.0470934,-75
1643288413542,228111.0470958,-80
1643288413542,228111.0470984,-82
1643288413542,228111.0471009,-70
1643288413542,228111.0471036,-73
1643288413542,228111.0471061,-94
1643288413542,228111.0471086,-84
1643288413542,228111.0471111,-44
1643288413542,228111.0471138,0
1643288413581,228111.0471163,18
1643288413581,228111.0471205,18
1643288413581,228111.0471233,-7
1643288413581,228111.047126,-54
1643288413581,228111.0471288,-70
1643288413581,228111.0471327,-44
1643288413581,228111.0471354,-30
1643288413581,228111.047139,-42
1643288413581,228111.0471425,-42
1643288413581,228111.0471452,-37
1643288413618,228111.0471488,-40
1643288413618,228111.0471515,-51
1643288413618,228111.0471562,-59
1643288413618,228111.0471588,-51
1643288413618,228111.0471615,-61
1643288413618,228111.0471642,-106
1643288413618,228111.0471679,61
1643288413618,228111.0471707,764
1643288413618,228111.5961275,1663
1643288413618,228111.5961404,1803
1643288413658,228111.5961437,644
1643288413658,228111.5961465,-811
1643288413658,228111.5961493,-1028
1643288413658,228111.596152,-469
1643288413658,228111.5961548,-332
1643288413658,228111.5961574,-306
1643288413658,228111.5961601,-96
1643288413658,228111.5961628,-63
1643288413658,228111.5961655,-113
1643288413658,228111.5961681,-59
1643288413698,228111.5961709,-16
1643288413698,228111.5961743,-14
1643288413698,228111.5961781,9
1643288413698,228111.5961818,21
1643288413698,228111.5961847,33
1643288413698,228111.5961894,75
1643288413698,228111.5961936,120
1643288413698,228111.5961981,162
1643288413698,228111.5962009,217
1643288413698,228111.5962037,271
1643288413737,228111.5962066,323
1643288413737,228111.5962113,382
1643288413737,228111.596214,424
1643288413737,228111.5962169,441
1643288413737,228111.5962204,431
1643288413737,228111.5962233,384
1643288413737,228111.596227,304
1643288413737,228111.5962302,233
1643288413737,228111.5962345,158
1643288413737,228111.5962373,44
1643288413776,228111.5962402,-51
1643288413776,228111.5962436,-96
1643288413776,228111.5962481,-129
1643288413776,228111.5962509,-162
1643288414024,228111.5962537,-184
1643288414024,228111.5962565,-188
1643288414024,228111.5962592,-186
1643288414024,228111.5962619,-167
1643288414024,228111.5962646,-132
1643288414024,228111.5962673,-129
1643288414024,228111.59627,-139
1643288414024,228111.5962727,-120
1643288414024,228111.5962753,-99
1643288414024,228111.596278,-103
1643288414064,228111.5962807,-103
1643288414064,228111.5962834,-92
1643288414064,228111.5962861,-94
1643288414064,228111.5962887,-101
1643288414064,228111.5962914,-94
1643288414064,228111.5962941,-87
1643288414064,228111.596297,-82
1643288414064,228111.5962998,-80
1643288414064,228111.5963046,-84
1643288414064,228111.5963073,-94
1643288414107,228111.5963102,-113
1643288414107,228111.5963139,-110
1643288414107,228111.5963168,-63
1643288414107,228111.5963203,-16
1643288414107,228111.5963231,0
1643288414107,228111.5963277,4
1643288414107,228111.5963305,-2
1643288414107,228111.5963335,-35
1643288414107,228111.5963381,-63
1643288414107,228111.596341,-70
1643288414148,228111.5963439,-70
1643288414148,228111.5963474,-63
1643288414148,228111.5963503,-51
1643288414148,228111.5963541,-47
1643288414148,228111.596357,-49
1643288414148,228111.5963614,-51
1643288414148,228111.5963641,-56
1643288414148,228112.1011818,-59
1643288414148,228112.1011945,-66
1643288414148,228112.1011985,-118
1643288414183,228112.101204,-66
1643288414183,228112.101207,472
1643288414183,228112.1012115,1451
1643288414183,228112.1012159,2017
1643288414183,228112.1012202,1250
1643288414183,228112.1012244,-408
1643288414183,228112.1012289,-1144
1643288414183,228112.1012316,-644
1643288414183,228112.1012343,-344
1643288414183,228112.1012372,-379
1643288414221,228112.101241,-179
1643288414221,228112.1012448,-54
1643288414221,228112.1012485,-92
1643288414221,228112.1012513,-61
1643288414221,228112.1012558,-23
1643288414221,228112.1012585,-28
1643288414221,228112.1012619,-2
1643288414221,228112.1012663,37
1643288414221,228112.1012705,49
1643288414221,228112.1012741,73
1643288414260,228112.1012777,129
1643288414260,228112.101282,179
1643288414260,228112.1012847,207
1643288414260,228112.1012875,266
1643288414260,228112.1012919,337
1643288414260,228112.1012946,389
1643288414260,228112.1012975,446
1643288414260,228112.1013002,493
1643288414260,228112.1013053,479
1643288414260,228112.1013099,434
1643288414297,228112.1013143,398
1643288414297,228112.101317,318
1643288414297,228112.1013199,191
1643288414297,228112.1013227,94
1643288414577,228112.1013271,11
1643288414577,228112.1013298,-73
1643288414577,228112.1013326,-122
1643288414577,228112.1013353,-143
1643288414577,228112.101338,-169
1643288414577,228112.1013406,-184
1643288414577,228112.1013432,-172
1643288414577,228112.1013458,-165
1643288414577,228112.1013484,-165
1643288414577,228112.1013511,-158
1643288414623,228112.1013537,-139
1643288414623,228112.1013563,-129
1643288414623,228112.1013589,-127
1643288414623,228112.1013616,-108
1643288414623,228112.1013642,-92
1643288414623,228112.1013668,-92
1643288414623,228112.1013695,-92
1643288414623,228112.1013723,-92
1643288414623,228112.1013752,-89
1643288414623,228112.1013793,-84
1643288414664,228112.1013821,-89
1643288414664,228112.1013856,-94
1643288414664,228112.1013884,-94
1643288414664,228112.1013927,-110
1643288414664,228112.1013955,-115
1643288414664,228112.1013997,-75
1643288414664,228112.1014045,-25
1643288414664,228112.1014073,-11
1643288414664,228112.10141,-9
1643288414664,228112.1014128,-9
1643288414700,228112.1014165,-35
1643288414700,228112.1014209,-73
1643288414700,228112.1014237,-84
1643288414700,228112.1014265,-77
1643288414700,228112.1014303,-77
1643288414700,228112.1014331,-80
1643288414700,228112.651117,-61
1643288414700,228112.6511273,-37
1643288414700,228112.6511306,-44
1643288414700,228112.6511335,-51
1643288414736,228112.6511362,-49
1643288414736,228112.651139,-68
1643288414736,228112.6511417,-110
1643288414736,228112.6511444,-146
1643288414736,228112.6511472,14
1643288414736,228112.65115,658
1643288414736,228112.6511527,1571
1643288414736,228112.6511554,1838
1643288414736,228112.6511581,712
1643288414736,228112.6511612,-868
1643288414777,228112.6511638,-1135
1643288414777,228112.6511669,-502
1643288414777,228112.6511695,-389
1643288414777,228112.6511726,-410
1643288414777,228112.6511753,-106
1643288414777,228112.651178,11
1643288414777,228112.6511807,-66
1643288414777,228112.6511833,-44
1643288414777,228112.651186,18
1643288414777,228112.6511888,49
1643288414824,228112.6511914,75
1643288414824,228112.6511941,84
1643288414824,228112.6511968,84
1643288414824,228112.6511995,125
1643288414824,228112.6512022,181
1643288414824,228112.6512049,217
1643288414824,228112.6512076,259
1643288414824,228112.6512102,330
1643288414824,228112.6512133,394
1643288414824,228112.6512159,462
1643288414861,228112.6512185,521
1643288414861,228112.6512212,521
1643288414861,228112.6512239,495
1643288414861,228112.6512266,464
1643288415365,228112.6512293,394
1643288415365,228112.651232,302
1643288415365,228112.6512347,188
1643288415365,228112.6512374,63
1643288415365,228112.65124,-30
1643288415365,228112.6512427,-89
1643288415365,228112.6512455,-146
1643288415365,228112.6512483,-169
1643288415365,228112.651251,-177
1643288415365,228112.6512537,-195
1643288415414,228112.6512564,-200
1643288415414,228112.6512591,-179
1643288415414,228112.6512617,-160
1643288415414,228112.6512644,-172
1643288415414,228112.6512671,-191
1643288415414,228112.6512698,-177
1643288415414,228112.6512746,-127
1643288415414,228112.6512774,-118
1643288415414,228112.6512803,-155
1643288415414,228112.651283,-162
1643288415441,228112.6512859,-125
1643288415441,228112.651289,-122
1643288415441,228112.6512917,-136
1643288415441,228112.6512944,-108
1643288415441,228112.6512971,-94
1643288415441,228112.6513,-122
1643288415441,228112.6513028,-132
1643288415441,228112.6513054,-94
1643288415441,228112.6513081,-42
1643288415441,228112.6513108,-14
1643288415465,228112.6513135,-18
1643288415465,228112.6513162,-54
1643288415465,228112.6513188,-84
1643288415465,228112.6513215,-87
1643288415465,228112.6513242,-84
1643288415465,228113.2511489,-89
1643288415465,228113.2511597,-73
1643288415465,228113.2511631,-49
1643288415465,228113.2511662,-70
1643288415465,228113.2511727,-125
1643288415490,228113.2511756,-141
1643288415490,228113.2511785,-120
1643288415490,228113.2511826,-94
1643288415490,228113.2511855,-106
1643288415490,228113.2511901,-162
1643288415490,228113.2511945,28
1643288415490,228113.251199,802
1643288415490,228113.251202,1734
1643288415490,228113.2512049,1814
1643288415490,228113.2512086,571
1643288415533,228113.2512116,-837
1643288415533,228113.2512158,-951
1643288415533,228113.2512194,-422
1643288415533,228113.2512232,-337
1643288415533,228113.2512262,-287
1643288415533,228113.2512311,-84
1643288415533,228113.2512345,-63
1643288415533,228113.2512391,-70
1643288415533,228113.2512432,-7
1643288415533,228113.2512478,4
1643288415573,228113.2512513,2
1643288415573,228113.2512556,40
1643288415573,228113.25126,73
1643288415573,228113.2512644,84
1643288415573,228113.2512672,89
1643288415573,228113.251271,110
1643288415573,228113.251274,148
1643288415573,228113.2512784,198
1643288415573,228113.2512812,273
1643288415573,228113.251284,342
1643288415622,228113.2512885,375
1643288415622,228113.2512923,408
1643288415622,228113.2512967,443
1643288415622,228113.251301,424
1643288415705,228113.2513054,354
1643288415705,228113.2513083,285
1643288415705,228113.2513111,202
1643288415705,228113.251314,96
1643288415705,228113.2513166,23
1643288415705,228113.2513196,-40
1643288415705,228113.2513224,-122
1643288415705,228113.251325,-174
1643288415705,228113.2513277,-174
1643288415705,228113.2513305,-158
1643288415745,228113.2513331,-151
1643288415745,228113.2513358,-165
1643288415745,228113.2513386,-179
1643288415745,228113.2513413,-172
1643288415745,228113.251344,-153
1643288415745,228113.2513484,-146
1643288415745,228113.2513522,-139
1643288415745,228113.2513581,-125
1643288415745,228113.2513615,-110
1643288415745,228113.2513644,-96
1643288415791,228113.2513689,-101
1643288415791,228113.2513731,-118
1643288415791,228113.2513776,-122
1643288415791,228113.2513817,-132
1643288415791,228113.2513861,-158
1643288415791,228113.2513901,-151
1643288415791,228113.2513944,-94
1643288415791,228113.2513973,-44
1643288415791,228113.2514002,-35
1643288415791,228113.2514047,-35
1643288415832,228113.2514087,-44
1643288415832,228113.251413,-77
1643288415832,228113.2514158,-96
1643288415832,228113.2514206,-75
1643288415832,228113.8062012,-70
1643288415832,228113.8062144,-89
1643288415832,228113.8062177,-75
1643288415832,228113.8062207,-47
1643288415832,228113.8062246,-54
1643288415832,228113.8062278,-59
1643288415875,228113.8062322,-47
1643288415875,228113.8062364,-51
1643288415875,228113.8062409,-59
1643288415875,228113.8062451,-122
1643288415875,228113.8062496,-148
1643288415875,228113.8062538,280
1643288415875,228113.8062583,1220
1643288415875,228113.806261,1890
1643288415875,228113.8062638,1382
1643288415875,228113.8062683,-146
1643288415920,228113.8062725,-1092
1643288415920,228113.806277,-726
1643288415920,228113.8062804,-332
1643288415920,228113.8062833,-368
1643288415920,228113.8062879,-207
1643288415920,228113.806292,-40
1643288415920,228113.8062965,-101
1643288415920,228113.8062993,-106
1643288415920,228113.8063023,-21
1643288415920,228113.8063072,0
1643288415967,228113.8063101,-4
1643288415967,228113.8063138,28
1643288415967,228113.8063167,61
1643288415967,228113.8063204,82
1643288415967,228113.806325,106
1643288415967,228113.806329,143
1643288415967,228113.8063335,193
1643288415967,228113.8063379,257
1643288415967,228113.8063423,328
1643288415967,228113.8063451,387
1643288416008,228113.8063487,410
1643288416008,228113.8063515,431
1643288416008,228113.8063562,453
1643288416008,228113.806359,415
1643288416315,228113.8063636,337
1643288416315,228113.8063664,269
1643288416315,228113.806369,181
1643288416315,228113.8063717,68
1643288416315,228113.8063745,-30
1643288416315,228113.8063772,-106
1643288416315,228113.8063799,-155
1643288416315,228113.8063826,-165
1643288416315,228113.8063852,-186
1643288416315,228113.8063879,-217
1643288416361,228113.8063905,-184
1643288416361,228113.8063931,-136
1643288416361,228113.8063957,-169
1643288416361,228113.8063983,-202
1643288416361,228113.8064009,-167
1643288416361,228113.8064036,-148
1643288416361,228113.8064063,-158
1643288416361,228113.8064089,-134
1643288416361,228113.8064115,-118
1643288416361,228113.8064143,-132
1643288416395,228113.8064172,-118
1643288416395,228113.8064198,-89
1643288416395,228113.8064225,-108
1643288416395,228113.8064251,-125
1643288416395,228113.8064278,-115
1643288416395,228113.8064304,-101
1643288416395,228113.8064331,-40
1643288416395,228113.8064358,16
1643288416395,228113.8064385,2
1643288416395,228113.8064412,-28
1643288416438,228113.8064438,-59
1643288416438,228113.8064469,-108
1643288416438,228113.8064499,-110
1643288416438,228114.399675,-68
1643288416438,228114.3996868,-54
1643288416438,228114.3996905,-68
1643288416438,228114.3996952,-73
1643288416438,228114.3996983,-56
1643288416438,228114.3997012,-35
1643288416438,228114.3997059,-37
1643288416472,228114.3997087,-68
1643288416472,228114.3997134,-110
1643288416472,228114.3997168,-172
1643288416472,228114.3997212,-115
1643288416472,228114.3997241,405
1643288416472,228114.3997269,1361
1643288416472,228114.3997314,1930
1643288416472,228114.3997346,1198
1643288416472,228114.3997391,-356
1643288416472,228114.3997434,-1036
1643288416511,228114.3997481,-618
1643288416511,228114.3997511,-372
1643288416511,228114.3997556,-370
1643288416511,228114.3997584,-174
1643288416511,228114.399763,-87
1643288416511,228114.3997659,-132
1643288416511,228114.3997703,-84
1643288416511,228114.3997731,-25
1643288416511,228114.3997776,-4
1643288416511,228114.3997815,14
1643288416553,228114.399786,25
1643288416553,228114.3997889,44
1643288416553,228114.3997934,94
1643288416553,228114.3997973,136
1643288416553,228114.3998018,162
1643288416553,228114.3998045,212
1643288416553,228114.3998091,264
1643288416553,228114.3998122,304
1643288416553,228114.399815,365
1643288416553,228114.3998197,415
1643288416590,228114.3998227,420
1643288416590,228114.3998255,417
1643288416590,228114.39983,422
1643288416590,228114.3998333,361
1643288416960,228114.3998361,224
1643288416960,228114.3998389,120
1643288416960,228114.3998416,63
1643288416960,228114.3998444,-11
1643288416960,228114.3998471,-94
1643288416960,228114.3998497,-136
1643288416960,228114.3998524,-172
1643288416960,228114.399855,-202
1643288416960,228114.3998577,-191
1643288416960,228114.3998603,-195
1643288417002,228114.399863,-236
1643288417002,228114.3998657,-231
1643288417002,228114.3998683,-174
1643288417002,228114.399871,-136
1643288417002,228114.3998736,-129
1643288417002,228114.3998763,-134
1643288417002,228114.3998792,-146
1643288417002,228114.399884,-132
1643288417002,228114.3998881,-103
1643288417002,228114.3998926,-120
1643288417046,228114.3998959,-120
1643288417046,228114.3999003,-49
1643288417046,228114.3999032,-21
1643288417046,228114.3999061,-35
1643288417046,228114.3999106,21
1643288417046,228114.3999134,40
1643288417046,228114.399918,-66
1643288417046,228114.3999208,-84
1643288417046,228114.3999256,23
1643288417046,228114.3999286,-16
1643288417089,228114.3999331,-153
1643288417089,228114.399936,-122
1643288417089,228115.0491556,-47
1643288417089,228115.0491674,-80
1643288417089,228115.0491706,-70
1643288417089,228115.0491733,30
1643288417089,228115.0491759,23
1643288417089,228115.0491784,-139
1643288417089,228115.0491812,-219
1643288417089,228115.0491837,-122
1643288417132,228115.0491863,-66
1643288417132,228115.0491888,-103
1643288417132,228115.0491913,122
1643288417132,228115.0491939,906
1643288417132,228115.0491964,1767
1643288417132,228115.049199,1562
1643288417132,228115.0492016,51
1643288417132,228115.0492166,-1125
1643288417132,228115.0492476,-906
1643288417132,228115.0492837,-464
1643288417175,228115.0492901,-391
1643288417175,228115.0492932,-179
1643288417175,228115.0492959,-89
1643288417175,228115.0492985,-174
1643288417175,228115.0493012,-92
1643288417175,228115.0493039,-44
1643288417175,228115.0493066,-68
1643288417175,228115.0493093,40
1643288417175,228115.0493133,132
1643288417175,228115.0493161,84
1643288417220,228115.0493208,37
1643288417220,228115.0493235,80
1643288417220,228115.0493262,122
1643288417220,228115.0493289,160
1643288417220,228115.0493316,238
1643288417220,228115.0493343,302
1643288417220,228115.049337,313
1643288417220,228115.0493415,351
1643288417220,228115.0493441,493
1643288417220,228115.0493467,578
1643288417265,228115.0493495,523
1643288417265,228115.0493522,490
1643288417265,228115.0493554,488
1643288417265,228115.0493597,443
1643288417435,228115.0493623,429
1643288417435,228115.0493649,420
1643288417435,228115.0493675,271
1643288417435,228115.0493702,115
1643288417435,228115.0493727,129
1643288417435,228115.0493752,193
1643288417435,228115.0493778,165
1643288417435,228115.0493803,73
1643288417435,228115.0493829,-35
1643288417435,228115.0493855,-101
1643288417475,228115.049388,-68
1643288417475,228115.0493906,-18
1643288417475,228115.0493931,-82
1643288417475,228115.0493956,-169
1643288417475,228115.0493981,-169
1643288417475,228115.0494007,-162
1643288417475,228115.0494032,-188
1643288417475,228115.0494186,-177
1643288417475,228115.0494267,-195
1643288417475,228115.0494297,-259
1643288417516,228115.0494323,-195
1643288417516,228115.0494349,-77
1643288417516,228115.0494375,-113
1643288417516,228115.0494401,-186
1643288417516,228115.0494427,-151
1643288417516,228115.0494453,-165
1643288417516,228115.0494483,-280
1643288417516,228115.0494509,-269
1643288417516,228115.0494535,-134
1643288417516,228115.049456,-148
1643288417559,228115.0494586,-285
1643288417559,228115.5019332,-313
1643288417559,228115.501946,-250
1643288417559,228115.5019496,-202
1643288417559,228115.5019543,-184
1643288417559,228115.5019579,-200
1643288417559,228115.5019625,-259
1643288417559,228115.5019655,-320
1643288417559,228115.5019701,-285
1643288417559,228115.5019744,14
1643288417601,228115.501979,717
1643288417601,228115.5019825,1541
1643288417601,228115.5019872,1508
1643288417601,228115.5019904,51
1643288417601,228115.5019946,-1305
1643288417601,228115.5019976,-1033
1643288417601,228115.5020022,-410
1643288417601,228115.5020054,-512
1643288417601,228115.5020084,-436
1643288417601,228115.5020132,-113
1643288417644,228115.5020162,-148
1643288417644,228115.5020208,-226
1643288417644,228115.5020239,-101
1643288417644,228115.5020284,-54
1643288417644,228115.5020329,-92
1643288417644,228115.5020375,-73
1643288417644,228115.5020405,-73
1643288417644,228115.502045,-94
1643288417644,228115.5020481,-9
1643288417644,228115.5020526,106
1643288417686,228115.5020562,99
1643288417686,228115.5020607,89
1643288417686,228115.5020637,198
1643288417686,228115.5020685,309
1643288417686,228115.5020719,375
1643288417686,228115.5020765,420
1643288417686,228115.5020796,408
1643288417686,228115.5020841,387
1643288417686,228115.5020871,382
1643288417686,228115.5020917,299
1643288417727,228115.5020962,125
1643288417727,228115.5021006,33
1643288417727,228115.5021036,28
1643288417727,228115.5021082,-87
1643288418062,228115.5021119,-236
1643288418062,228115.5021148,-252
1643288418062,228115.5021176,-224
1643288418062,228115.5021204,-243
1643288418062,228115.5021232,-266
1643288418062,228115.502126,-266
1643288418062,228115.5021288,-219
1643288418062,228115.5021316,-174
1643288418062,228115.5021343,-193
1643288418062,228115.5021372,-226
1643288418106,228115.5021399,-205
1643288418106,228115.5021427,-162
1643288418106,228115.5021455,-136
1643288418106,228115.5021483,-151
1643288418106,228115.5021511,-184
1643288418106,228115.5021539,-186
1643288418106,228115.5021567,-120
1643288418106,228115.5021594,-25
1643288418106,228115.5021622,-9
1643288418106,228115.502165,-73
1643288418149,228115.5021677,-101
1643288418149,228115.5021705,-80
1643288418149,228115.5021733,-96
1643288418149,228115.5021761,-120
1643288418149,228115.5021789,-99
1643288418149,228115.5021817,-101
1643288418149,228115.5021845,-143
1643288418149,228115.5021877,-129
1643288418149,228115.5021907,-66
1643288418149,228115.5021954,-61
1643288418191,228116.1502877,-94
1643288418191,228116.1503001,-89
1643288418191,228116.1503033,-113
1643288418191,228116.150306,-172
1643288418191,228116.1503086,-110
1643288418191,228116.1503112,252
1643288418191,228116.1503138,1031
1643288418191,228116.1503164,1826
1643288418191,228116.150319,1633
1643288418191,228116.1503216,139
1643288418237,228116.1503242,-1109
1643288418237,228116.1503268,-913
1643288418237,228116.1503294,-405
1643288418237,228116.1503336,-420
1643288418237,228116.1503373,-316
1643288418237,228116.1503413,-84
1643288418237,228116.1503449,-92
1643288418237,228116.1503477,-118
1643288418237,228116.1503522,-66
1643288418237,228116.1503548,-63
1643288418286,228116.1503575,-30
1643288418286,228116.1503611,51
1643288418286,228116.1503639,54
1643288418286,228116.1503673,21
1643288418286,228116.1503701,54
1643288418286,228116.1503747,108
1643288418286,228116.1503773,153
1643288418286,228116.1503799,238
1643288418286,228116.1503826,330
1643288418286,228116.1503874,363
1643288418334,228116.15039,379
1643288418334,228116.1503926,434
1643288418334,228116.1503952,497
1643288418334,228116.1503978,505
1643288418334,228116.1504004,431
1643288418334,228116.150403,332
1643288418334,228116.1504055,224
1643288418334,228116.1504081,84
1643288418334,228116.1504107,-21
1643288418334,228116.1504133,-92
1643288418388,228116.1504159,-188
1643288418388,228116.1504184,-219
1643288418388,228116.1504216,-132
1643288418388,228116.1504244,-106
1643288418548,228116.1504272,-191
1643288418548,228116.1504299,-224
1643288418548,228116.1504324,-191
1643288418548,228116.150435,-184
1643288418548,228116.1504376,-191
1643288418548,228116.1504401,-191
1643288418548,228116.1504427,-153
1643288418548,228116.1504453,-87
1643288418548,228116.1504478,-101
1643288418548,228116.1504504,-172
1643288418591,228116.1504529,-151
1643288418591,228116.1504555,-82
1643288418591,228116.1504581,-61
1643288418591,228116.1504606,-56
1643288418591,228116.1504632,-35
1643288418591,228116.1504658,-11
1643288418591,228116.1504683,-30
1643288418591,228116.1504709,-92
1643288418591,228116.1504735,-110
1643288418591,228116.150476,-92
1643288418634,228116.1504786,-115
1643288418634,228116.1504811,-122
1643288418634,228116.1504837,-66
1643288418634,228116.1504862,-54
1643288418634,228116.1504889,-103
1643288418634,228116.1504914,-106
1643288418634,228116.1504939,-51
1643288418634,228116.1504965,-49
1643288418634,228116.150499,-127
1643288418634,228116.6512348,-205
1643288418672,228116.6512464,-68
1643288418672,228116.6512497,561
1643288418672,228116.6512526,1545
1643288418672,228116.6512553,2020
1643288418672,228116.651258,1151
1643288418672,228116.6512607,-436
1643288418672,228116.6512634,-1033
1643288418672,228116.651266,-578
1643288418672,228116.6512686,-368
1643288418672,228116.6512712,-394
1643288418713,228116.6512739,-210
1643288418713,228116.6512765,-101
1643288418713,228116.6512791,-115
1643288418713,228116.6512822,-96
1643288418713,228116.651285,-73
1643288418713,228116.6512888,-47
1643288418713,228116.6512926,4
1643288418713,228116.6512955,42
1643288418713,228116.6512992,25
1643288418713,228116.6513037,21
1643288418755,228116.6513089,70
1643288418755,228116.6513126,136
1643288418755,228116.6513155,179
1643288418755,228116.6513193,205
1643288418755,228116.6513221,278
1643288418755,228116.6513247,387
1643288418755,228116.6513273,441
1643288418755,228116.6513301,441
1643288418755,228116.6513329,431
1643288418755,228116.6513357,401
1643288418796,228116.651339,325
1643288418796,228116.6513418,224
1643288418796,228116.6513454,96
1643288418796,228116.6513486,-42
1643288418796,228116.6513519,-101
1643288418796,228116.6513548,-113
1643288418796,228116.6513577,-181
1643288418796,228116.6513605,-243
1643288418796,228116.6513643,-240
1643288418796,228116.6513678,-240
1643288418840,228116.6513708,-228
1643288418840,228116.6513755,-181
1643288418840,228116.6513782,-162
1643288418840,228116.6513811,-198
1643288419097,228116.6513848,-219
1643288419097,228116.6513876,-202
1643288419097,228116.6513902,-179
1643288419097,228116.6513929,-151
1643288419097,228116.6513955,-143
1643288419097,228116.6513981,-172
1643288419097,228116.6514009,-153
1643288419097,228116.6514036,-80
1643288419097,228116.6514065,-63
1643288419097,228116.6514091,-77
1643288419143,228116.6514118,-49
1643288419143,228116.6514148,-37
1643288419143,228116.6514174,-77
1643288419143,228116.6514201,-127
1643288419143,228116.6514227,-158
1643288419143,228116.6514656,-141
1643288419143,228116.6514733,-110
1643288419143,228116.6514765,-110
1643288419143,228116.6514793,-115
1643288419143,228116.651482,-134
1643288419188,228116.6514848,-155
1643288419188,228116.6514875,-122
1643288419188,228116.6514901,-80
1643288419188,228116.6514929,-103
1643288419188,228116.6514957,-146
1643288419188,228116.651536,-186
1643288419188,228116.6515439,-59
1643288419188,228116.651547,606
1643288419188,228117.2015914,1628
1643288419188,228117.2016039,1998
1643288419231,228117.2016072,913
1643288419231,228117.2016101,-755
1643288419231,228117.2016129,-1170
1643288419231,228117.2016157,-535
1643288419231,228117.2016184,-375
1643288419231,228117.201621,-436
1643288419231,228117.2016237,-146
1643288419231,228117.2016264,-11
1643288419231,228117.2016291,-92
1643288419231,228117.2016317,-61
1643288419276,228117.2016343,9
1643288419276,228117.2016385,14
1643288419276,228117.2016426,4
1643288419276,228117.2016454,21
1643288419276,228117.2016483,59
1643288419276,228117.2016515,94
1643288419276,228117.2016543,134
1643288419276,228117.2016572,200
1643288419276,228117.2016619,254
1643288419276,228117.2016657,323
1643288419320,228117.2016685,436
1643288419320,228117.2016713,526
1643288419320,228117.2016741,571
1643288419320,228117.2016774,601
1643288419320,228117.2016801,592
1643288419320,228117.2016829,531
1643288419320,228117.2016868,427
1643288419320,228117.2016897,271
1643288419320,228117.2016934,120
1643288419320,228117.2016963,2
1643288419365,228117.2016998,-77
1643288419365,228117.2017026,-66
1643288419365,228117.2017063,-77
1643288419365,228117.2017091,-207
1643288419365,228117.2017127,-219
1643288419365,228117.2017155,-134
1643288419365,228117.201719,-191
1643288419365,228117.2017218,-269
1643288419365,228117.2017256,-186
1643288419365,228117.2017535,-115
1643288419403,228117.2017671,-169
1643288419403,228117.201773,-191
1643288419403,228117.2017765,-141
1643288419403,228117.201781,-125
1643288419683,228117.2017842,-127
1643288419683,228117.201787,-73
1643288419683,228117.2017897,-56
1643288419683,228117.2017923,-139
1643288419683,228117.201795,-125
1643288419683,228117.2017977,0
1643288419683,228117.2018003,16
1643288419683,228117.2018029,-61
1643288419683,228117.2018054,-42
1643288419683,228117.201808,40
1643288419726,228117.2018106,14
1643288419726,228117.2018343,-92
1643288419726,228117.2018513,-115
1643288419726,228117.2018558,-56
1643288419726,228117.2018587,-33
1643288419726,228117.2018615,-80
1643288419726,228117.2018642,-143
1643288419726,228117.2018668,-165
1643288419726,228117.2018695,-146
1643288419726,228117.2018722,-80
1643288419768,228117.2018749,4
1643288419768,228117.2018776,-75
1643288419768,228117.2018802,-278
1643288419768,228117.2018828,-143
1643288419768,228117.2018855,538
1643288419768,228117.2018884,1437
1643288419768,228117.201891,1932
1643288419768,228117.7566859,1196
1643288419768,228117.7566985,-479
1643288419768,228117.7567023,-1241
1643288419808,228117.7567073,-686
1643288419808,228117.7567118,-377
1643288419808,228117.7567165,-497
1643288419808,228117.7567195,-271
1643288419808,228117.7567225,9
1643288419808,228117.7567273,-4
1643288419808,228117.7567302,-73
1643288419808,228117.7567348,-54
1643288419808,228117.7567391,-42
1643288419808,228117.7567436,-16
1643288419851,228117.7567466,118
1643288419851,228117.7567533,120
1643288419851,228117.7567568,-54
1643288419851,228117.7567611,42
1643288419851,228117.756764,257
1643288419851,228117.7567668,193
1643288419851,228117.7567696,167
1643288419851,228117.7567733,434
1643288419851,228117.7567762,594
1643288419851,228117.7567791,479
1643288419894,228117.7567829,457
1643288419894,228117.7567877,540
1643288419894,228117.7567906,481
1643288419894,228117.7567935,403
1643288419894,228117.7567982,370
1643288419894,228117.7568027,250
1643288419894,228117.7568072,73
1643288419894,228117.7568102,2
1643288419894,228117.7568151,-47
1643288419894,228117.7568183,-207
1643288419936,228117.7568229,-273
1643288419936,228117.7568273,-193
1643288419936,228117.7568319,-217
1643288419936,228117.7568349,-285
1643288419936,228117.7568395,-188
1643288419936,228117.7568425,-99
1643288419936,228117.7568471,-153
1643288419936,228117.75685,-108
1643288419936,228117.756853,0
1643288419936,228117.756858,-80
1643288419978,228117.7568611,-127
1643288419978,228117.7568658,-23
1643288419978,228117.7568688,-47
1643288419978,228117.7568735,-160
1643288420297,228117.7568766,-118
1643288420297,228117.7568795,-25
1643288420297,228117.7568827,-56
1643288420297,228117.7568855,-73
1643288420297,228117.7568885,-9
1643288420297,228117.7568912,-37
1643288420297,228117.7568939,-106
1643288420297,228117.7568966,-49
1643288420297,228117.7568994,-30
1643288420297,228117.7569021,-125
1643288420340,228117.7569048,-141
1643288420340,228117.7569076,-103
1643288420340,228117.7569104,-155
1643288420340,228117.7569131,-143
1643288420340,228117.7569158,-59
1643288420340,228117.7569188,-113
1643288420340,228117.7569226,-177
1643288420340,228117.7569256,-92
1643288420340,228117.7569302,-40
1643288420340,228117.7569331,-148
1643288420374,228117.7569361,-101
1643288420374,228117.7569409,486
1643288420374,228117.7569453,1475
1643288420374,228117.7569499,2164
1643288420374,228117.7569536,1607
1643288420374,228117.7569582,-158
1643288420374,228118.3957563,-1236
1643288420374,228118.3957675,-726
1643288420374,228118.3957707,-287
1643288420374,228118.3957758,-488
1643288420407,228118.3957809,-344
1643288420407,228118.3957844,18
1643288420407,228118.3957872,51
1643288420407,228118.395791,-56
1643288420407,228118.3957937,-92
1643288420407,228118.3957963,-84
1643288420407,228118.3958008,-77
1643288420407,228118.3958034,-68
1643288420407,228118.3958061,68
1643288420407,228118.3958087,136
1643288420441,228118.3958114,-127
1643288420441,228118.395814,-174
1643288420441,228118.3958166,155
1643288420441,228118.3958213,231
1643288420441,228118.3958251,134
1643288420441,228118.3958287,276
1643288420441,228118.3958314,455
1643288420441,228118.3958342,443
1643288420441,228118.3958385,337
1643288420441,228118.3958426,295
1643288420479,228118.3958469,287
1643288420479,228118.3958511,217
1643288420479,228118.3958546,113
1643288420479,228118.3958573,-35
1643288420479,228118.3958619,-217
1643288420479,228118.3958659,-264
1643288420479,228118.3958704,-257
1643288420479,228118.3958745,-323
1643288420479,228118.3958789,-313
1643288420479,228118.395883,-254
1643288420514,228118.3958873,-297
1643288420514,228118.3958899,-320
1643288420514,228118.3958926,-269
1643288420514,228118.3958953,-228
1643288420514,228118.395898,-219
1643288420514,228118.3959006,-200
1643288420514,228118.3959035,-162
1643288420514,228118.3959079,-146
1643288420514,228118.395912,-174
1643288420514,228118.3959156,-217
1643288420551,228118.3959184,-219
1643288420551,228118.3959211,-181
1643288420551,228118.3959246,-143
1643288420551,228118.395942,-165
1643288420824,228118.3959599,-214
1643288420824,228118.395964,-205
1643288420824,228118.3959669,-132
1643288420824,228118.3959696,-96
1643288420824,228118.3959722,-143
1643288420824,228118.3959748,-181
1643288420824,228118.3959773,-210
1643288420824,228118.3959798,-247
1643288420824,228118.3959823,-221
1643288420824,228118.3959848,-160
1643288420864,228118.3959872,-155
1643288420864,228118.3959897,-179
1643288420864,228118.3959924,-162
1643288420864,228118.3959949,-143
1643288420864,228118.3959975,-205
1643288420864,228118.396,-254
1643288420864,228118.3960025,-193
1643288420864,228118.396005,-153
1643288420864,228118.3960075,-174
1643288420864,228118.3960101,136
1643288420908,228118.3960126,1007
1643288420908,228118.3960151,1819
1643288420908,228118.3960176,1515
1643288420908,228118.3960201,-89
1643288420908,228118.3960227,-1319
1643288420908,228118.8976712,-962
1643288420908,228118.8976879,-431
1643288420908,228118.8976915,-542
1643288420908,228118.8976943,-436
1643288420908,228118.897697,-136
1643288420949,228118.8976997,-108
1643288420949,228118.8977023,-191
1643288420949,228118.897705,-139
1643288420949,228118.897708,-59
1643288420949,228118.8977106,-92
1643288420949,228118.8977133,-77
1643288420949,228118.897716,44
1643288420949,228118.8977187,61
1643288420949,228118.8977215,14
1643288420949,228118.8977243,129
1643288420992,228118.8977277,205
1643288420992,228118.8977314,110
1643288420992,228118.897736,177
1643288420992,228118.8977388,325
1643288420992,228118.8977417,254
1643288420992,228118.8977462,292
1643288420992,228118.897749,573
1643288420992,228118.8977517,462
1643288420992,228118.8977546,40
1643288420992,228118.8977582,56
1643288421036,228118.897761,210
1643288421036,228118.8977655,-66
1643288421036,228118.8977682,-120
1643288421036,228118.8977711,271
1643288421036,228118.8977777,160
1643288421036,228118.8977814,-434
1643288421036,228118.8977846,-535
1643288421036,228118.8977874,-160
1643288421036,228118.8977901,-96
1643288421036,228118.897793,-349
1643288421075,228118.8977958,-292
1643288421075,228118.8977999,40
1643288421075,228118.8978029,18
1643288421075,228118.8978074,-280
1643288421075,228118.8978102,-148
1643288421075,228118.8978229,110
1643288421075,228118.8978342,-113
1643288421075,228118.8978391,-339
1643288421075,228118.897843,-210
1643288421075,228118.897846,-82
1643288421114,228118.8978514,-89
1643288421114,228118.8978543,-54
1643288421114,228118.8978589,25
1643288421114,228118.8978616,23
1643288421325,228118.8978649,-23
1643288421325,228118.897868,-49
1643288421325,228118.8978706,-21
1643288421325,228118.8978733,-11
1643288421325,228118.8978759,-110
1643288421325,228118.8978786,-115
1643288421325,228118.8978812,4
1643288421325,228118.897884,-25
1643288421325,228118.8978867,-87
1643288421325,228118.8978893,7
1643288421368,228118.8978919,92
1643288421368,228118.8978948,61
1643288421368,228118.8978974,2
1643288421368,228118.8979001,-37
1643288421368,228118.8979028,-63
1643288421368,228118.8979054,-120
1643288421368,228118.8979084,-151
1643288421368,228118.897914,431
1643288421368,228118.8979182,1689
1643288421368,228118.8979511,2180
1643288421405,228118.8979662,1083
1643288421405,228118.8979769,-342
1643288421405,228118.8979918,-693
1643288421405,228118.8979973,-311
1643288421405,228119.4011102,-198
1643288421405,228119.4011222,-264
1643288421405,228119.4011256,-106
1643288421405,228119.4011287,33
1643288421405,228119.4011324,28
1643288421405,228119.4011354,54
1643288421452,228119.40114,99
1643288421452,228119.4011429,68
1643288421452,228119.4011458,18
1643288421452,228119.4011503,54
1643288421452,228119.4011533,158
1643288421452,228119.4011577,217
1643288421452,228119.4011618,221
1643288421452,228119.4011663,219
1643288421452,228119.4011693,280
1643288421452,228119.4011738,382
1643288421490,228119.4011768,408
1643288421490,228119.4011812,420
1643288421490,228119.4011849,483
1643288421490,228119.4011894,545
1643288421490,228119.4011923,580
1643288421490,228119.4011967,542
1643288421490,228119.4011995,446
1643288421490,228119.4012024,372
1643288421490,228119.4012069,271
1643288421490,228119.4012111,125
1643288421523,228119.4012155,33
1643288421523,228119.4012197,-7
1643288421523,228119.4012241,-96
1643288421523,228119.4012271,-174
1643288421523,228119.40123,-136
1643288421523,228119.4012344,-68
1643288421523,228119.4012385,-92
1643288421523,228119.401243,-165
1643288421523,228119.4012459,-153
1643288421523,228119.4012509,-75
1643288421562,228119.4012538,-44
1643288421562,228119.4012583,-33
1643288421562,228119.4012626,-44
1643288421562,228119.401267,-82
1643288421562,228119.4012698,-49
1643288421562,228119.4012727,23
1643288421562,228119.4012772,44
1643288421562,228119.4012836,23
1643288421562,228119.4012884,37
1643288421562,228119.4012925,129
1643288421603,228119.4012954,191
1643288421603,228119.4012994,113
1643288421603,228119.4013024,40
1643288421603,228119.4013069,73
1643288421910,228119.4013097,77
1643288421910,228119.4013126,33
1643288421910,228119.4013154,51
1643288421910,228119.4013181,96
1643288421910,228119.4013208,75
1643288421910,228119.4013236,40
1643288421910,228119.4013263,47
1643288421910,228119.401329,61
1643288421910,228119.4013317,68
1643288421910,228119.4013344,70
1643288421934,228119.4013371,54
1643288421934,228119.40134,21
1643288421934,228119.4013427,139
1643288421934,228119.4013456,719
1643288421934,228119.4013483,1656
1643288421934,228119.4013511,2102
1643288421934,228119.4013538,1224
1643288421934,228119.4013566,-365
1643288421934,228119.4013594,-936
1643288421934,228119.4013621,-417
1643288421959,228119.4013649,-252
1643288421959,228119.4013676,-346
1643288421959,228119.4013704,-68
1643288421959,228120.0014508,92
1643288421959,228120.0014637,4
1643288421959,228120.0014669,54
1643288421959,228120.0014697,125
1643288421959,228120.0014724,77
1643288421959,228120.0014751,80
1643288421959,228120.0014779,120
1643288421984,228120.001481,110
1643288421984,228120.0014836,127
1643288421984,228120.0014863,177
1643288421984,228120.001489,221
1643288421984,228120.0014917,283
1643288421984,228120.0014944,358
1643288421984,228120.001497,422
1643288421984,228120.0014997,481
1643288421984,228120.0015024,545
1643288421984,228120.0015051,575
1643288422011,228120.0015079,554
1643288422011,228120.0015107,523
1643288422011,228120.0015136,476
1643288422011,228120.0015179,377
1643288422011,228120.0015207,247
1643288422011,228120.0015234,136
1643288422011,228120.0015261,40
1643288422011,228120.0015289,-33
1643288422011,228120.0015315,-70
1643288422011,228120.0015342,-110
1643288422035,228120.0015368,-146
1643288422035,228120.0015394,-139
1643288422035,228120.0015421,-118
1643288422035,228120.0015479,-118
1643288422035,228120.0015507,-118
1643288422035,228120.0015533,-99
1643288422035,228120.001556,-80
1643288422035,228120.0015588,-73
1643288422035,228120.0015614,-56
1643288422035,228120.0015641,-14
1643288422059,228120.0015668,0
1643288422059,228120.0015695,-33
1643288422059,228120.0015721,-37
1643288422059,228120.0015748,9
1643288422059,228120.0015775,40
1643288422059,228120.0015803,42
1643288422059,228120.001583,61
1643288422059,228120.0015858,84
1643288422059,228120.0015886,77
1643288422059,228120.0015913,61
1643288422087,228120.0016238,54
1643288422087,228120.0016298,25
1643288422087,228120.0016331,-9
1643288422087,228120.0016359,-16
1643288422459,228120.0016386,-11
1643288422459,228120.0016414,-4
1643288422459,228120.0016441,14
1643288422459,228120.0016469,18
1643288422459,228120.0016496,4
1643288422459,228120.0016524,14
1643288422459,228120.0016551,30
1643288422459,228120.0016578,7
1643288422459,228120.0016605,-42
1643288422459,228120.0016632,54
1643288422484,228120.001666,575
1643288422484,228120.0016687,1460
1643288422484,228120.0016714,2020
1643288422484,228120.0016741,1397
1643288422484,228120.001677,-184
1643288422484,228120.0016798,-1033
1643288422484,228120.0016825,-587
1643288422484,228120.0016909,-250
1643288422484,228120.0016978,-302
1643288422484,228120.0017008,-120
1643288422510,228120.0017035,18
1643288422510,228120.0017062,-28
1643288422510,228120.5519107,7
1643288422510,228120.5519221,77
1643288422510,228120.5519273,54
1643288422510,228120.5519321,23
1643288422510,228120.5519348,75
1643288422510,228120.5519377,141
1643288422510,228120.5519423,167
1643288422510,228120.5519462,188
1643288422534,228120.5519491,212
1643288422534,228120.5519518,254
1643288422534,228120.5519545,332
1643288422534,228120.5519573,384
1643288422534,228120.55196,405
1643288422534,228120.5519628,448
1643288422534,228120.5519654,479
1643288422534,228120.5519681,469
1643288422534,228120.5519708,488
1643288422534,228120.5519737,497
1643288422558,228120.551977,354
1643288422558,228120.5519797,155
1643288422558,228120.5519824,59
1643288422558,228120.5519851,0
1643288422558,228120.5519879,-92
1643288422558,228120.5519926,-165
1643288422558,228120.5519954,-195
1643288422558,228120.5519999,-205
1643288422558,228120.5520034,-195
1643288422558,228120.5520077,-181
1643288422584,228120.5520105,-160
1643288422584,228120.5520144,-151
1643288422584,228120.5520172,-172
1643288422584,228120.5520199,-153
1643288422584,228120.5520225,-94
1643288422584,228120.5520253,-115
1643288422584,228120.552028,-160
1643288422584,228120.5520307,-110
1643288422584,228120.5520334,-70
1643288422584,228120.5520361,-94
1643288422610,228120.5520388,-84
1643288422610,228120.5520415,-51
1643288422610,228120.5520441,-35
1643288422610,228120.5520468,-35
1643288422610,228120.5520495,-35
1643288422610,228120.5520522,-2
1643288422610,228120.552055,33
1643288422610,228120.5520598,7
1643288422610,228120.5520632,-42
1643288422610,228120.5520659,-44
1643288422634,228120.5520686,2
1643288422634,228120.5520713,-2
1643288422634,228120.552074,-54
1643288422634,228120.5520787,4
1643288423111,228120.5520831,47
1643288423111,228120.5520858,-25
1643288423111,228120.5520883,-2
1643288423111,228120.5520909,40
1643288423111,228120.5520935,-44
1643288423111,228120.5520961,-110
1643288423111,228120.5520987,-94
1643288423111,228120.5521012,84
1643288423111,228120.5521038,722
1643288423111,228120.5521063,1644
1643288423136,228120.5521089,1987
1643288423136,228120.5521115,1028
1643288423136,228120.552114,-538
1643288423136,228120.5521166,-1005
1643288423136,228120.5521192,-455
1643288423136,228120.5521218,-320
1643288423136,228120.5521243,-394
1643288423136,228120.5521269,-113
1643288423136,228120.5521295,14
1643288423136,228120.5521321,-80
1643288423161,228120.5521347,-54
1643288423161,228121.1957894,16
1643288423161,228121.1958246,16
1643288423161,228121.1958286,14
1643288423161,228121.1958569,44
1643288423161,228121.1958644,96
1643288423161,228121.1958677,139
1643288423161,228121.1958705,134
1643288423161,228121.1958732,143
1643288423161,228121.195876,212
1643288423186,228121.1958787,278
1643288423186,228121.1958814,337
1643288423186,228121.1958841,413
1643288423186,228121.1958868,455
1643288423186,228121.1958894,472
1643288423186,228121.1958921,516
1643288423186,228121.1958949,507
1643288423186,228121.1958988,344
1643288423186,228121.1959018,177
1643288423186,228121.1959069,158
1643288423213,228121.1959107,125
1643288423213,228121.1959136,-44
1643288423213,228121.1959183,-153
1643288423213,228121.1959212,-155
1643288423213,228121.1959241,-193
1643288423213,228121.1959278,-236
1643288423213,228121.1959307,-207
1643288423213,228121.1959352,-177
1643288423213,228121.1959389,-202
1643288423213,228121.1959434,-210
1643288423235,228121.1959463,-160
1643288423235,228121.1959512,-141
1643288423235,228121.1959542,-165
1643288423235,228121.1959571,-141
1643288423235,228121.1959616,-92
1643288423235,228121.1959652,-92
1643288423235,228121.1959697,-141
1643288423235,228121.1959741,-174
1643288423235,228121.1959785,-120
1643288423235,228121.1959814,-44
1643288423261,228121.1959861,-33
1643288423261,228121.1959889,-30
1643288423261,228121.1959935,-16
1643288423261,228121.1959965,-30
1643288423261,228121.1960009,-56
1643288423261,228121.1960053,-68
1643288423261,228121.1960098,-56
1643288423261,228121.1960127,-59
1643288423261,228121.1960172,-101
1643288423261,228121.1960218,-89
1643288423284,228121.1960262,-35
1643288423284,228121.1960292,-54
1643288423284,228121.1960337,-110
1643288423284,228121.1960366,-94
1643288423559,228121.1960412,-47
1643288423559,228121.1960441,-40
1643288423559,228121.1960468,-66
1643288423559,228121.1960495,-141
1643288423559,228121.1960523,-92
1643288423559,228121.1960551,462
1643288423559,228121.1960578,1404
1643288423559,228121.1960605,1956
1643288423559,228121.1960632,1371
1643288423559,228121.196066,-110
1643288423585,228121.1960687,-984
1643288423585,228121.1960714,-656
1643288423585,228121.1960744,-354
1643288423585,228121.1960772,-382
1643288423585,228121.1960799,-191
1643288423585,228121.1960827,-75
1643288423585,228121.1960854,-141
1643288423585,228121.1960882,-110
1643288423585,228121.1960909,-66
1643288423585,228121.1960936,-49
1643288423611,228121.6513275,18
1643288423611,228121.6513394,59
1643288423611,228121.6513429,56
1643288423611,228121.6513479,110
1643288423611,228121.6513527,167
1643288423611,228121.6513572,155
1643288423611,228121.6513611,162
1643288423611,228121.6513656,224
1643288423611,228121.6513696,271
1643288423611,228121.651374,292
1643288423637,228121.6513769,344
1643288423637,228121.6513797,405
1643288423637,228121.6513825,415
1643288423637,228121.6513871,372
1643288423637,228121.6513919,316
1643288423637,228121.6513962,207
1643288423637,228121.6513989,56
1643288423637,228121.6514017,-70
1643288423637,228121.6514054,-155
1643288423637,228121.6514081,-191
1643288423659,228121.6514109,-214
1643288423659,228121.6514137,-254
1643288423659,228121.6514165,-276
1643288423659,228121.6514193,-287
1643288423659,228121.651422,-311
1643288423659,228121.6514247,-280
1643288423659,228121.6514275,-247
1643288423659,228121.651432,-266
1643288423659,228121.6514352,-233
1643288423659,228121.651438,-165
1643288423684,228121.6514407,-169
1643288423684,228121.6514442,-202
1643288423684,228121.6514486,-212
1643288423684,228121.6514514,-193
1643288423684,228121.6514558,-148
1643288423684,228121.65146,-153
1643288423684,228121.6514644,-207
1643288423684,228121.6514684,-198
1643288423684,228121.6514727,-101
1643288423684,228121.651477,-37
1643288423713,228121.6514815,-70
1643288423713,228121.6514846,-99
1643288423713,228121.651489,-96
1643288423713,228121.6514931,-129
1643288423713,228121.6514975,-151
1643288423713,228121.6515002,-115
1643288423713,228121.6515029,-89
1643288423713,228121.6515075,-129
1643288423713,228121.6515116,-146
1643288423713,228121.6515152,-77
1643288423734,228121.6515179,-40
1643288423734,228121.6515206,-82
1643288423734,228121.6515234,-113
1643288423734,228121.6515262,-80
1643288424193,228121.6515296,-44
1643288424193,228121.6515323,-99
1643288424193,228121.651535,30
1643288424193,228121.6515376,795
1643288424193,228121.6515402,1779
1643288424193,228121.6515456,1916
1643288424193,228121.6515592,750
1643288424193,228121.6515715,-696
1643288424193,228121.6515756,-960
1643288424193,228121.6515817,-455
1643288424211,228121.6515848,-318
1643288424211,228121.6515893,-299
1643288424211,228121.6515921,-146
1643288424211,228121.6515949,-148
1643288424211,228121.6515985,-158
1643288424211,228121.6516012,-51
1643288424211,228121.651604,-30
1643288424211,228121.6516067,-80
1643288424211,228121.6516095,-54
1643288424211,228122.2965239,0
1643288424230,228122.2965362,44
1643288424230,228122.2965424,82
1643288424230,228122.2965475,49
1643288424230,228122.296552,49
1643288424230,228122.2965549,217
1643288424230,228122.2965584,365
1643288424230,228122.296563,323
1643288424230,228122.2965667,287
1643288424230,228122.2965712,401
1643288424230,228122.2965741,490
1643288424248,228122.2965778,464
1643288424248,228122.2965807,403
1643288424248,228122.2965852,337
1643288424248,228122.29659,243
1643288424248,228122.2965944,129
1643288424248,228122.2965988,11
1643288424248,228122.2966032,-122
1643288424248,228122.2966062,-214
1643288424248,228122.2966107,-207
1643288424248,228122.2966135,-179
1643288424265,228122.2966164,-243
1643288424265,228122.296621,-304
1643288424265,228122.2966251,-238
1643288424265,228122.2966296,-195
1643288424265,228122.2966337,-259
1643288424265,228122.2966382,-259
1643288424265,228122.2966411,-167
1643288424265,228122.2966455,-141
1643288424265,228122.2966499,-143
1643288424265,228122.2966546,-99
1643288424282,228122.2966575,-68
1643288424282,228122.2966623,-82
1643288424282,228122.2966663,-122
1643288424282,228122.2966707,-101
1643288424282,228122.2966741,-28
1643288424282,228122.296677,-101
1643288424282,228122.2966815,-236
1643288424282,228122.2966843,-158
1643288424282,228122.2966872,-59
1643288424282,228122.2966916,-165
1643288424308,228122.2966961,-236
1643288424308,228122.2967008,-165
1643288424308,228122.2967038,-153
1643288424308,228122.2967075,-202
1643288424308,228122.2967104,-195
1643288424308,228122.2967148,-179
1643288424308,228122.2967183,-200
1643288424308,228122.2967228,-202
1643288424308,228122.2967271,-193
1643288424308,228122.2967315,-181
1643288424336,228122.2967343,-162
1643288424336,228122.2967372,-162
1643288424336,228122.2967416,-179
1643288424336,228122.2967459,-224
1643288424667,228122.2967504,-226
1643288424667,228122.2967538,155
1643288424667,228122.2967566,1019
1643288424667,228122.2967593,1781
1643288424667,228122.296762,1538
1643288424667,228122.2967648,49
1643288424667,228122.2967675,-1215
1643288424667,228122.2967702,-998
1643288424667,228122.2967729,-472
1643288424667,228122.2967757,-554
1643288424693,228122.2967784,-469
1643288424693,228122.2967811,-162
1643288424693,228122.2967838,-110
1643288424693,228122.2967865,-110
1643288424693,228122.2967895,-59
1643288424693,228122.2967941,-96
1643288424693,228122.2967986,-94
1643288424693,228122.2968032,-4
1643288424693,228122.7520027,42
1643288424693,228122.7520265,54
1643288424719,228122.7520357,101
1643288424719,228122.7520446,134
1643288424719,228122.7520523,134
1643288424719,228122.7520592,179
1643288424719,228122.7520667,278
1643288424719,228122.752077,387
1643288424719,228122.7520844,474
1643288424719,228122.7520947,486
1643288424719,228122.7521033,443
1643288424719,228122.7521129,441
1643288424744,228122.7521205,460
1643288424744,228122.7521306,408
1643288424744,228122.7521377,273
1643288424744,228122.7521477,125
1643288424744,228122.7521556,9
1643288424744,228122.752165,-96
1643288424744,228122.7521719,-179
1643288424744,228122.7521812,-214
1643288424744,228122.7521889,-228
1643288424744,228122.7521989,-231
1643288424772,228122.7522061,-245
1643288424772,228122.7522165,-285
1643288424772,228122.7522238,-273
1643288424772,228122.7522337,-207
1643288424772,228122.752241,-177
1643288424772,228122.7522511,-207
1643288424772,228122.752259,-219
1643288424772,228122.752268,-153
1643288424772,228122.7522777,-118
1643288424772,228122.7522849,-167
1643288424813,228122.7522941,-179
1643288424813,228122.7523018,-122
1643288424813,228122.752311,-87
1643288424813,228122.7523185,-89
1643288424813,228122.7523262,-77
1643288424813,228122.7523353,-61
1643288424813,228122.7523454,-82
1643288424813,228122.7523528,-101
1643288424813,228122.7523607,-103
1643288424813,228122.7523694,-136
1643288424842,228122.7523765,-162
1643288424842,228122.7523865,-129
1643288424842,228122.7523948,-89
1643288424842,228122.7524039,-94
1643288424842,228122.7524133,-118
1643288424842,228122.7524209,-108
1643288424842,228122.7524306,-92
1643288424842,228122.7524381,-106
1643288424842,228122.7524481,-110
1643288424842,228122.7524562,-103
1643288424871,228122.7524669,-134
1643288424871,228122.7524751,-101
1643288424871,228122.7524855,332
1643288424871,228122.7524934,1243
1643288425269,228122.7525023,1949
1643288425269,228122.7525118,1503
1643288425269,228122.7525195,-47
1643288425269,228122.7525269,-1095
1643288425269,228122.7525347,-783
1643288425269,228122.7525452,-403
1643288425269,228122.7525531,-483
1643288425269,228122.7525635,-313
1643288425269,228122.752572,-61
1643288425269,228122.7525811,-106
1643288425305,228122.7525913,-177
1643288425305,228122.7525991,-120
1643288425305,228122.7526072,-70
1643288425305,228122.7526165,-49
1643288425305,228122.7526201,2
1643288425305,228122.7526228,33
1643288425305,228122.7526254,35
1643288425305,228123.3511347,66
1643288425305,228123.3511463,106
1643288425305,228123.3511511,155
1643288425338,228123.3511559,243
1643288425338,228123.3511595,283
1643288425338,228123.351164,264
1643288425338,228123.3511681,344
1643288425338,228123.3511726,474
1643288425338,228123.3511755,488
1643288425338,228123.3511802,391
1643288425338,228123.3511834,295
1643288425338,228123.3511863,292
1643288425338,228123.3511908,269
1643288425368,228123.3511936,42
1643288425368,228123.3511964,-172
1643288425368,228123.351201,-143
1643288425368,228123.3512048,-155
1643288425368,228123.3512094,-304
1643288425368,228123.3512123,-285
1643288425368,228123.3512168,-188
1643288425368,228123.3512198,-269
1643288425368,228123.3512242,-292
1643288425368,228123.3512271,-92
1643288425400,228123.3512316,-70
1643288425400,228123.351236,-311
1643288425400,228123.3512405,-292
1643288425400,228123.3512434,-49
1643288425400,228123.351248,-63
1643288425400,228123.351251,-236
1643288425400,228123.3512554,-226
1643288425400,228123.3512581,-136
1643288425400,228123.351261,-160
1643288425400,228123.3512656,-122
1643288425428,228123.3512689,56
1643288425428,228123.3512717,141
1643288425428,228123.3512754,40
1643288425428,228123.3512783,-42
1643288425428,228123.3512819,25
1643288425428,228123.3512848,92
1643288425428,228123.3512896,49
1643288425428,228123.3512925,42
1643288425428,228123.3512971,151
1643288425428,228123.3513001,354
1643288425459,228123.3513045,545
1643288425459,228123.3513074,502
1643288425459,228123.3513121,278
1643288425459,228123.3513156,146
1643288425459,228123.35132,118
1643288425459,228123.3513231,42
1643288425459,228123.3513259,-63
1643288425459,228123.3513306,151
1643288425459,228123.3513336,1019
1643288425459,228123.3513364,2043
1643288425494,228123.351341,2074
1643288425494,228123.3513438,644
1643288425494,228123.3513483,-922
1643288425494,228123.3513512,-1038
1643288425794,228123.3513556,-436
1643288425794,228123.3513584,-377
1643288425794,228123.3513612,-403
1643288425794,228123.3513641,-184
1643288425794,228123.3513668,-162
1643288425794,228123.3513694,-304
1643288425794,228123.3513721,-302
1643288425794,228123.3513749,-177
1643288425794,228123.3513775,-108
1643288425794,228123.3513802,-219
1643288425828,228123.3513829,-346
1643288425828,228123.3513856,-276
1643288425828,228123.3513883,-181
1643288425828,228123.351391,-193
1643288425828,228123.3513937,-134
1643288425828,228123.3513964,-35
1643288425828,228123.9013862,7
1643288425828,228123.9013976,70
1643288425828,228123.9014009,160
1643288425828,228123.9014041,174
1643288425863,228123.901407,139
1643288425863,228123.9014099,158
1643288425863,228123.9014143,205
1643288425863,228123.901417,177
1643288425863,228123.9014197,-9
1643288425863,228123.9014223,-231
1643288425863,228123.901425,-266
1643288425863,228123.9014287,-217
1643288425863,228123.9014315,-316
1643288425863,228123.9014342,-526
1643288425895,228123.901437,-533
1643288425895,228123.9014397,-335
1643288425895,228123.9014424,-330
1643288425895,228123.9014452,-516
1643288425895,228123.9014479,-512
1643288425895,228123.9014506,-354
1643288425895,228123.9014533,-342
1643288425895,228123.901456,-351
1643288425895,228123.9014588,-245
1643288425895,228123.9014616,-323
1643288425927,228123.9014645,-497
1643288425927,228123.9014699,-368
1643288425927,228123.9014726,-231
1643288425927,228123.9014753,-295
1643288425927,228123.9014782,-243
1643288425927,228123.901481,-122
1643288425927,228123.9014839,-134
1643288425927,228123.9014877,-158
1643288425927,228123.9014905,-165
1643288425927,228123.9014944,-212
1643288425961,228123.9014972,-191
1643288425961,228123.9014998,-129
1643288425961,228123.9015026,-191
1643288425961,228123.9015056,-254
1643288425961,228123.9015084,-165
1643288425961,228123.9015112,-89
1643288425961,228123.9015139,-153
1643288425961,228123.9015166,-177
1643288425961,228123.9015201,-113
1643288425961,228123.9015229,-184
1643288425995,228123.9015265,-264
1643288425995,228123.9015293,-127
1643288425995,228123.9015337,35
1643288425995,228123.9015365,382
1643288425995,228123.9015391,1295
1643288425995,228123.9015417,1994
1643288425995,228123.9015443,1163
1643288425995,228123.9015469,-658
1643288425995,228123.9015495,-1286
1643288425995,228123.9015521,-582
1643288426028,228123.9015547,-462
1643288426028,228123.9015574,-710
1643288426028,228123.90156,-271
1643288426028,228123.9015629,11
1643288426488,228123.9015657,-219
1643288426488,228123.9015684,-172
1643288426488,228123.901571,51
1643288426488,228123.9015736,-30
1643288426488,228123.9015762,-113
1643288426488,228123.9015789,61
1643288426488,228123.9015815,89
1643288426488,228123.9015843,-89
1643288426488,228123.9015869,-2
1643288426488,228123.9015898,212
1643288426520,228123.9015925,198
1643288426520,228123.9015951,219
1643288426520,228123.9015977,401
1643288426520,228123.9016004,434
1643288426520,228123.901603,361
1643288426520,228124.5962322,448
1643288426520,228124.5962449,554
1643288426520,228124.5962508,509
1643288426520,228124.596256,500
1643288426520,228124.5962592,509
1643288426554,228124.5962639,295
1643288426554,228124.596267,59
1643288426554,228124.5962717,44
1643288426554,228124.5962754,4
1643288426554,228124.59628,-207
1643288426554,228124.5962831,-332
1643288426554,228124.5962877,-287
1643288426554,228124.5962908,-271
1643288426554,228124.5962954,-302
1643288426554,228124.5962983,-351
1643288426586,228124.5963029,-429
1643288426586,228124.5963058,-401
1643288426586,228124.5963088,-261
1643288426586,228124.5963132,-205
1643288426586,228124.5963176,-313
1643288426586,228124.5963222,-420
1643288426586,228124.5963256,-339
1643288426586,228124.59633,-210
1643288426586,228124.596333,-224
1643288426586,228124.5963384,-266
1643288426620,228124.5963418,-172
1643288426620,228124.5963447,-89
1643288426620,228124.5963482,-139
1643288426620,228124.5963529,-228
1643288426620,228124.5963558,-297
1643288426620,228124.5963588,-261
1643288426620,228124.5963635,-184
1643288426620,228124.5963663,-231
1643288426620,228124.5963693,-264
1643288426620,228124.5963739,-214
1643288426656,228124.5963768,-233
1643288426656,228124.59638,-247
1643288426656,228124.5963846,-155
1643288426656,228124.5963884,-177
1643288426656,228124.5963913,-337
1643288426656,228124.5963959,-318
1643288426656,228124.5963987,-179
1643288426656,228124.5964017,23
1643288426656,228124.5964063,677
1643288426656,228124.5964091,1618
1643288426692,228124.5964124,1706
1643288426692,228124.5964169,181
1643288426692,228124.5964212,-1368
1643288426692,228124.5964257,-1135
1643288426692,228124.5964296,-429
1643288426692,228124.5964325,-587
1643288426692,228124.5964371,-594
1643288426692,228124.59644,-155
1643288426692,228124.5964428,-23
1643288426692,228124.5964477,-143
1643288426727,228124.5964506,-139
1643288426727,228124.5964537,-40
1643288426727,228124.5964576,9
1643288426727,228124.5964606,4
1643288427063,228124.5964652,-25
1643288427063,228124.596468,2
1643288427063,228124.5964711,167
1643288427063,228124.596474,245
1643288427063,228124.5964768,162
1643288427063,228124.5964796,188
1643288427063,228124.5964824,318
1643288427063,228124.5964853,422
1643288427063,228124.5964881,497
1643288427063,228124.5964909,486
1643288427101,228124.5964938,434
1643288427101,228124.5964965,460
1643288427101,228124.5964992,505
1643288427101,228124.5965019,401
1643288427101,228125.1469586,195
1643288427101,228125.1469707,28
1643288427101,228125.1469742,-63
1643288427101,228125.1469789,-73
1643288427101,228125.1469818,-115
1643288427101,228125.1469861,-214
1643288427138,228125.1469888,-273
1643288427138,228125.1469916,-337
1643288427138,228125.1469943,-299
1643288427138,228125.1469971,-169
1643288427138,228125.1469997,-228
1643288427138,228125.1470024,-351
1643288427138,228125.1470052,-243
1643288427138,228125.1470079,-146
1643288427138,228125.1470106,-280
1643288427138,228125.1470133,-299
1643288427178,228125.147016,-94
1643288427178,228125.1470187,-77
1643288427178,228125.1470214,-266
1643288427178,228125.1470241,-236
1643288427178,228125.1470267,-28
1643288427178,228125.1470294,-35
1643288427178,228125.1470321,-148
1643288427178,228125.1470348,-75
1643288427178,228125.1470376,21
1643288427178,228125.1470402,-59
1643288427216,228125.1470429,-224
1643288427216,228125.1470456,-266
1643288427216,228125.1470483,-158
1643288427216,228125.147051,-89
1643288427216,228125.1470538,-113
1643288427216,228125.1470564,-101
1643288427216,228125.1470591,-73
1643288427216,228125.1470617,-108
1643288427216,228125.1470645,-103
1643288427216,228125.1470671,-96
1643288427260,228125.1470698,-122
1643288427260,228125.1470725,158
1643288427260,228125.1470754,1012
1643288427260,228125.1470781,1904
1643288427260,228125.1470808,1585
1643288427260,228125.1470835,-77
1643288427260,228125.1470863,-1224
1643288427260,228125.147089,-830
1643288427260,228125.1470917,-328
1643288427260,228125.1470944,-472
1643288427295,228125.1470971,-424
1643288427295,228125.1470999,-94
1643288427295,228125.1471026,84
1643288427295,228125.1471054,61
1643288427295,228125.1471081,-21
1643288427295,228125.1471108,-42
1643288427295,228125.1471135,42
1643288427295,228125.1471163,143
1643288427295,228125.147119,108
1643288427295,228125.1471217,44
1643288427331,228125.1471244,113
1643288427331,228125.1471271,205
1643288427331,228125.1471298,240
1643288427331,228125.1471326,254
1643288427611,228125.1471353,302
1643288427611,228125.147138,417
1643288427611,228125.1471406,507
1643288427611,228125.1471433,505
1643288427611,228125.1471458,500
1643288427611,228125.1471484,488
1643288427611,228125.147151,427
1643288427611,228125.1471536,358
1643288427611,228125.1471561,276
1643288427611,228125.1471588,139
1643288427649,228125.1471613,25
1643288427649,228125.1471639,-16
1643288427649,228125.1471665,-75
1643288427649,228125.6998171,-155
1643288427649,228125.6998296,-165
1643288427649,228125.699833,-101
1643288427649,228125.6998379,-61
1643288427649,228125.6998409,-110
1643288427649,228125.6998455,-61
1643288427649,228125.6998484,59
1643288427687,228125.699853,-120
1643288427687,228125.699856,-276
1643288427687,228125.6998604,14
1643288427687,228125.6998633,122
1643288427687,228125.6998678,-200
1643288427687,228125.6998706,-210
1643288427687,228125.6998755,139
1643288427687,228125.6998794,207
1643288427687,228125.6998824,84
1643288427687,228125.699887,127
1643288427724,228125.6998908,172
1643288427724,228125.6998953,84
1643288427724,228125.6998983,37
1643288427724,228125.6999029,61
1643288427724,228125.6999059,42
1643288427724,228125.6999105,28
1643288427724,228125.6999134,54
1643288427724,228125.6999179,42
1643288427724,228125.6999213,18
1643288427724,228125.699925,33
1643288427763,228125.6999279,54
1643288427763,228125.6999324,77
1643288427763,228125.6999354,87
1643288427763,228125.6999398,16
1643288427763,228125.6999427,68
1643288427763,228125.6999466,585
1643288427763,228125.6999495,1465
1643288427763,228125.6999541,2003
1643288427763,228125.6999569,1335
1643288427763,228125.6999614,-295
1643288427799,228125.6999644,-1113
1643288427799,228125.6999694,-578
1643288427799,228125.6999723,-231
1643288427799,228125.6999769,-363
1643288427799,228125.6999814,-160
1643288427799,228125.6999859,42
1643288427799,228125.69999,-25
1643288427799,228125.6999945,7
1643288427799,228125.6999975,56
1643288427799,228125.700002,2
1643288427855,228125.7000049,37
1643288427855,228125.7000094,120
1643288427855,228125.7000129,101
1643288427855,228125.7000174,80
1643288427855,228125.7000209,118
1643288427855,228125.7000255,143
1643288427855,228125.700029,191
1643288427855,228125.7000336,283
1643288427855,228125.7000366,339
1643288427855,228125.7000411,363
1643288427924,228125.7000439,405
1643288427924,228125.7000468,450
1643288427924,228125.7000512,476
1643288427924,228125.7000541,472
1643288428158,228125.7000588,408
1643288428158,228125.7000622,297
1643288428158,228125.7000649,179
1643288428158,228125.7000677,87
1643288428158,228125.7000704,16
1643288428158,228125.7000731,-54
1643288428158,228125.7000758,-106
1643288428158,228125.7000785,-122
1643288428158,228125.7000813,-132
1643288428158,228125.700084,-139
1643288428182,228125.7000867,-132
1643288428182,228125.7000894,-125
1643288428182,228126.2476859,-139
1643288428182,228126.2476998,-134
1643288428182,228126.2477055,-92
1643288428182,228126.2477103,-84
1643288428182,228126.2477132,-120
1643288428182,228126.247716,-108
1643288428182,228126.2477187,-66
1643288428182,228126.2477213,-47
1643288428206,228126.247724,-33
1643288428206,228126.2477266,-23
1643288428206,228126.2477292,-44
1643288428206,228126.2477318,-59
1643288428206,228126.2477344,-66
1643288428206,228126.2477382,-80
1643288428206,228126.247741,-89
1643288428206,228126.2477437,-89
1643288428206,228126.2477465,-84
1643288428206,228126.2477491,-77
1643288428232,228126.2477518,-63
1643288428232,228126.2477545,-51
1643288428232,228126.2477572,-59
1643288428232,228126.2477599,-75
1643288428232,228126.2477626,-89
1643288428232,228126.2477653,-108
1643288428232,228126.2477843,-139
1643288428232,228126.2477892,16
1643288428232,228126.2477918,651
1643288428232,228126.2477945,1505
1643288428259,228126.247797,1725
1643288428259,228126.2477996,748
1643288428259,228126.2478022,-620
1643288428259,228126.2478048,-946
1643288428259,228126.2478073,-467
1643288428259,228126.2478099,-330
1643288428259,228126.2478124,-330
1643288428259,228126.247815,-125
1643288428259,228126.2478176,-73
1643288428259,228126.2478469,-118
1643288428281,228126.2478498,-49
1643288428281,228126.2478525,-40
1643288428281,228126.2478551,-61
1643288428281,228126.247858,40
1643288428281,228126.2478609,125
1643288428281,228126.2478638,80
1643288428281,228126.2478664,70
1643288428281,228126.247946,160
1643288428281,228126.2479519,205
1643288428281,228126.2479555,205
1643288428307,228126.24796,273
1643288428307,228126.2479628,354
1643288428307,228126.2479654,365
1643288428307,228126.2479682,389
1643288428307,228126.2479711,438
1643288428307,228126.2479738,460
1643288428307,228126.2479765,436
1643288428307,228126.2479792,351
1643288428307,228126.2479818,226
1643288428307,228126.2479845,101
1643288428331,228126.2479876,-11
1643288428331,228126.2479905,-92
1643288428331,228126.2479932,-148
1643288428331,228126.2479965,-191
1643288428706,228126.2480002,-202
1643288428706,228126.2480029,-198
1643288428706,228126.2480056,-207
1643288428706,228126.2480084,-207
1643288428706,228126.248011,-186
1643288428706,228126.2480137,-165
1643288428706,228126.2480163,-167
1643288428706,228126.2480191,-169
1643288428706,228126.2480218,-158
1643288428706,228126.2480249,-160
1643288428732,228126.2480279,-167
1643288428732,228126.8003412,-134
1643288428732,228126.8003527,-84
1643288428732,228126.800356,-66
1643288428732,228126.8003606,-73
1643288428732,228126.8003633,-61
1643288428732,228126.800366,-75
1643288428732,228126.8003687,-129
1643288428732,228126.8003714,-136
1643288428732,228126.8003759,-122
1643288428757,228126.80038,-139
1643288428757,228126.8003844,-146
1643288428757,228126.800387,-146
1643288428757,228126.8003897,-148
1643288428757,228126.8003934,-125
1643288428757,228126.8003962,-127
1643288428757,228126.8003999,-169
1643288428757,228126.8004027,-177
1643288428757,228126.8004054,-172
1643288428757,228126.800408,-214
1643288428782,228126.8004107,-80
1643288428782,228126.8004153,547
1643288428782,228126.8004179,1449
1643288428782,228126.8004206,1824
1643288428782,228126.8004234,974
1643288428782,228126.8004278,-540
1643288428782,228126.8004305,-1087
1643288428782,228126.8004333,-575
1643288428782,228126.8004378,-365
1643288428782,228126.8004404,-417
1643288428807,228126.8004431,-200
1643288428807,228126.8004476,-80
1643288428807,228126.8004517,-139
1643288428807,228126.8004554,-101
1643288428807,228126.8004581,-37
1643288428807,228126.8004608,-63
1643288428807,228126.8004634,-63
1643288428807,228126.8004661,-7
1643288428807,228126.8004689,35
1643288428807,228126.8004734,68
1643288428832,228126.8004768,122
1643288428832,228126.8004813,162
1643288428832,228126.8004854,179
1643288428832,228126.8004896,252
1643288428832,228126.8004939,351
1643288428832,228126.8004987,403
1643288428832,228126.8005028,450
1643288428832,228126.8005074,512
1643288428832,228126.8005102,512
1643288428832,228126.8005148,460
1643288428856,228126.8005188,394
1643288428856,228126.8005232,295
1643288428856,228126.8005258,153
1643288428856,228126.8005293,40
1643288428856,228126.8005321,-25
1643288428856,228126.8005349,-108
1643288428856,228126.800538,-193
1643288428856,228126.8005408,-205
1643288428856,228126.8005448,-172
1643288428856,228126.8005476,-169
1643288428884,228126.8005513,-172
1643288428884,228126.800554,-172
1643288428884,228126.8005567,-186
1643288428884,228126.8005594,-132
1643288429210,228126.800563,-44
1643288429210,228126.8005662,-54
1643288429210,228126.8005688,-125
1643288429210,228126.8005713,-158
1643288429210,228126.8005741,-127
1643288429210,228126.8005767,-66
1643288429210,228126.8005793,-40
1643288429210,228126.8005819,-66
1643288429210,228126.8005844,-68
1643288429210,228126.8005869,-42
1643288429233,228127.3014952,-82
1643288429233,228127.301506,-139
1643288429233,228127.3015094,-120
1643288429233,228127.3015123,-92
1643288429233,228127.301515,-125
1643288429233,228127.3015178,-153
1643288429233,228127.3015204,-108
1643288429233,228127.3015232,-63
1643288429233,228127.3015259,-94
1643288429233,228127.3015286,-108
1643288429261,228127.3015312,-73
1643288429261,228127.3015341,-80
1643288429261,228127.3015368,-127
1643288429261,228127.3015397,-151
1643288429261,228127.3015426,0
1643288429261,228127.3015455,594
1643288429261,228127.3015493,1498
1643288429261,228127.301552,1947
1643288429261,228127.3015547,1125
1643288429261,228127.3015573,-540
1643288429300,228127.3015599,-1222
1643288429300,228127.3015636,-623
1643288429300,228127.3015665,-342
1643288429300,228127.3015694,-453
1643288429300,228127.3015722,-214
1643288429300,228127.301575,-49
1643288429300,228127.3015778,-127
1643288429300,228127.3015839,-84
1643288429300,228127.301588,-2
1643288429300,228127.3015909,-16
1643288429318,228127.3015937,-2
1643288429318,228127.3015966,44
1643288429318,228127.3016005,47
1643288429318,228127.3016033,40
1643288429318,228127.3016062,89
1643288429318,228127.3016089,169
1643288429318,228127.3016119,200
1643288429318,228127.3016167,236
1643288429318,228127.3016195,358
1643288429318,228127.3016224,460
1643288429338,228127.3016253,474
1643288429338,228127.3016282,497
1643288429338,228127.3016321,542
1643288429338,228127.301635,514
1643288429338,228127.3016397,424
1643288429338,228127.301644,309
1643288429338,228127.3016486,167
1643288429338,228127.3016514,42
1643288429338,228127.3016542,-21
1643288429338,228127.301658,-73
1643288429360,228127.3016609,-151
1643288429360,228127.3016644,-207
1643288429360,228127.3016674,-219
1643288429360,228127.3016719,-214
1643288429360,228127.3016746,-202
1643288429360,228127.3016773,-186
1643288429360,228127.30168,-195
1643288429360,228127.3016827,-205
1643288429360,228127.3016854,-181
1643288429360,228127.3016881,-162
1643288429386,228127.3016907,-177
1643288429386,228127.3016933,-160
1643288429386,228127.3016961,-118
1643288429386,228127.3016988,-89
1643288429760,228127.3017015,-73
1643288429760,228127.3017042,-73
1643288429760,228127.3017069,-75
1643288429760,228127.3017096,-61
1643288429760,228127.3017125,-44
1643288429760,228127.3017152,-59
1643288429760,228127.3017178,-115
1643288429760,228127.3017206,-155
1643288429760,228127.3017262,-134
1643288429760,228127.8513446,-122
1643288429785,228127.8513573,-146
1643288429785,228127.8513608,-158
1643288429785,228127.8513636,-158
1643288429785,228127.8513664,-151
1643288429785,228127.8513691,-132
1643288429785,228127.8513719,-125
1643288429785,228127.8513747,-162
1643288429785,228127.8513774,-193
1643288429785,228127.8513802,30
1643288429785,228127.8513831,719
1643288429809,228127.8513859,1564
1643288429809,228127.8513886,1732
1643288429809,228127.8513913,625
1643288429809,228127.851394,-842
1643288429809,228127.851397,-1078
1643288429809,228127.8513997,-526
1643288429809,228127.8514025,-450
1643288429809,228127.8514052,-438
1643288429809,228127.851408,-143
1643288429809,228127.8514108,-70
